	x	y	theta	v	a	sigma	omega	t
0	-3.88059701492537	-2.2636815920398	-0.912370953011526	0.00010000999912033734	1.0000000099886936	0.7499702910678556	0.0003694460810975081	0.08040618766593291
1	-3.8805920946021604	-2.2636879524574476	-0.912368277684806	0.09909066313454566	1.0000000099883024	0.7499999968187848	-0.43695219666529994	0.16081237533186582
2	-3.8757169848846713	-2.269989888718698	-0.9097173858864953	0.17949685163032056	1.0000000099878836	0.7148663364926732	-0.4999999083434572	0.24121856299779873
3	-3.8668557827350707	-2.2813820219731027	-0.905243129018375	0.25990304011246856	1.0000000099874342	0.6746632500294597	-0.4999999647581092	0.32162475066373164
4	-3.8539515013293215	-2.2978197253912245	-0.8992732763179524	0.34030922859004364	1.0000000099869504	0.6344601590301588	-0.4999999818956352	0.4020309383296645
5	-3.8369268356351376	-2.3192415077473476	-0.8920810348042099	0.42071541706530674	1.0000000099864281	0.5942570666528947	-0.4999999896540256	0.4824371259955974
6	-3.815689758295194	-2.345572638312334	-0.8839171146794129	0.5011216055391601	1.0000000099858626	0.5540539736518075	-0.4999999938193924	0.5628433136615303
7	-3.790138695182283	-2.376728559329747	-0.8750137825383623	0.5815277940120525	1.000000009985248	0.5138508803157988	-0.4999999962418656	0.6432495013274632
8	-3.7601671812217976	-2.412618103793807	-0.8655881941375974	0.6619339824842385	1.0000000099845778	0.47364778678500813	-0.4999999976721775	0.723655688993396
9	-3.7256680596005043	-2.45314662373922	-0.8558451704238156	0.7423401709558751	1.000000009983844	0.43344469313921136	-0.4999999984546394	0.8040618766593289
10	-3.6865372815009256	-2.4982191015723676	-0.8459795407449255	0.8227463594270645	1.0000000099830368	0.3932415994304997	-0.49999999875064344	0.8844680643252618
11	-3.642677359734965	-2.5477432927003325	-0.8361781483736834	0.903152547897876	1.0000000099821449	0.3530385056979874	-0.4999999986207609	0.9648742519911947
12	-3.5940005280429492	-2.601632929482603	-0.8266215924169651	0.9835587363683572	1.0000000099811537	0.3128354119759185	-0.4999999980528474	1.0452804396571276
13	-3.5404316582541453	-2.6598110026541595	-0.8174857646623397	1.0639649248385408	1.000000009980046	0.2726323182995134	-0.4999999969606801	1.1256866273230606
14	-3.4819109898378966	-2.7222131256086826	-0.8089432284137771	1.1443711133084484	1.0000000099787998	0.23242922471092547	-0.4999999951542108	1.2060928149889936
15	-3.4183967304901897	-2.788790978335716	-0.8011644778371003	1.2247773017780936	1.0000000099773871	0.19222613126758906	-0.49999999226250824	1.2864990026549266
16	-3.349867592204763	-2.8595158206020974	-0.7943191100349309	1.3051834902474824	1.0000000099757724	0.15202303805676365	-0.4999999875497553	1.3669051903208596
17	-3.276325334709102	-2.9343820574790014	-0.7885769374805254	1.3855896787166138	1.0000000099739095	0.111819945224873	-0.49999997944570285	1.4473113779867925
18	-3.1977973971743983	-3.0134108338995746	-0.7841090651947198	1.4659958671854807	1.0000000099717357	0.07161685304459854	-0.49999996417706455	1.5277175656527255
19	-3.1143397097344954	-3.0966536279293972	-0.7810889548965202	1.5464020556540687	1.0000000099691664	0.0314137620920173	-0.4999999309138754	1.6081237533186585
20	-3.026039788592865	-3.184195804120132	-0.779693497124219	1.6268082441223548	1.0000000099660833	-0.008789326185997523	-0.4999998383352111	1.6885299409845915
21	-2.9330202323880856	-3.2761600778616864	-0.7801041118971773	1.7072144325903043	1.000000009962315	-0.04899240702011475	-0.4999994115843028	1.7689361286505245
22	-2.835442753044028	-3.3727098280535923	-0.7825078987630198	1.7876206210578685	1.0000000099576043	-0.08919545354081826	0.20224271354899975	1.8493423163164575
23	-2.733512891519512	-3.474052177459752	-0.7870988574094326	1.8680268095249764	1.0000000099515478	-0.07293388796112987	0.49999501972813226	1.9297485039823905
24	-2.6274855875025045	-3.580440736210921	-0.7910182153025542	1.948432997991524	1.0000000099434725	-0.03273119457283783	0.49986958513658825	2.0101546916483235
25	-2.5173302810556635	-3.6918412107563836	-0.7928502508727955	2.0288391864573527	1.000000009932167	0.00746141309814672	-0.06504748699293676	2.0905608793142565
26	-2.4028418882379587	-3.808048802052466	-0.7924155322860794	2.109245374922205	1.0000000099152089	0.0022311926517953125	-0.041579358697756516	2.1709670669801895
27	-2.283763626225753	-3.928810134600636	-0.7922803884205354	2.189651563385629	1.000000009886945	-0.0011120450666856374	0.017816602808558044	2.2513732546461225
28	-2.160129060637178	-4.054158282303647	-0.7923503128639684	2.270057751846717	1.0000000098304176	0.00032052004230866837	0.004932795528339939	2.3317794423120555
29	-2.0319635976068424	-4.184118301177111	-0.7923294187695832	2.350463940303198	1.000000009660835	0.0007171473252780442	-0.023435667983410412	2.4121856299779885
30	-1.8992556603851185	-4.318678773666226	-0.7922810134056005	2.4308701287459824	0.859758412051116	-0.001167225392672549	0.025883066659178684	2.4925918176439215
31	-1.7620012282375919	-4.457835734012145	-0.792362492861639	2.5000000249727288	2.5146826686616223e-16	0.0009139333224952237	-0.01458807482704222	2.5729980053098545
32	-1.6208551700767073	-4.600961587430723	-0.7922968804371415	2.5000000249727288	1.9124010789658474e-15	-0.00025903815973260486	-0.0030725384955224647	2.6534041929757874
33	-1.4796997213853949	-4.744078179606145	-0.7923154771081754	2.5000000249727288	6.458698115777106e-16	-0.0005060892666143874	0.015125883543358004	2.7338103806417204
34	-1.3385469342106748	-4.887197396778265	-0.7923518098871287	2.5000000249727288	-1.5183051699333398e-15	0.0007101253641859024	-0.016465894097690816	2.8142165683076534
35	-1.1973993470480007	-5.030321742328933	-0.7923008290983187	2.5000000249727288	-2.4789800179746003e-15	-0.0006138344067204026	0.007507243417350901	2.8946227559735864
36	-1.05624446347672	-5.1734388918782805	-0.7923448970368853	2.5000000249727288	2.748137365665859e-15	-1.0205583651046943e-05	0.17608887375581542	2.9750289436395194
37	-0.9150958869202516	-5.316562261693397	-0.7923456297083875	2.5000000249727288	-1.3405909651716374e-16	0.014148429445441818	0.462900138620002	3.0554351313054524
38	-0.7739474152262354	-5.459685734924015	-0.7913298286373609	2.500000024972729	2.2185298816333497e-12	0.05136846486190807	-0.499997979467971	3.1358413189713854
39	-0.632653631401973	-5.60266575556947	-0.7876387757412512	2.5000000249729073	1.2458268927870575e-15	0.011165533492219111	0.1543452578429368	3.2162475066373184
40	-0.49083306443981234	-5.745123280599535	-0.7868371549371469	2.5000000249729073	1.0732997405896676e-15	0.023575847259685093	0.49999910755059396	3.2966536943032514
41	-0.34889834614077325	-5.887467073553541	-0.7851443019828327	2.5000000249729073	8.474563126876347e-15	0.06377886933419716	0.4999994954308947	3.3770598819691844
42	-0.2067228642211374	-6.029570388054222	-0.7805593193543613	2.5000000249729077	-4.789648958768137e-12	0.10398192259668548	0.2274515122579493	3.4574660696351174
43	-0.0638973377644016	-6.171020339074068	-0.7730673069281652	2.5000000249725223	-3.678359009947499e-12	0.1222704315761984	-0.49999903495973125	3.5378722573010504
44	0.07998391517158662	-6.311396279693223	-0.7642453542845675	2.5000000249722265	4.005563070485637e-15	0.08206741533844088	0.007845288495967613	3.6182784449669834
45	0.22509794306880615	-6.450497460703931	-0.7583403700328465	2.5000000249722274	-2.590481759709693e-12	0.08269822507754103	-0.48698049415353584	3.6986846326329164
46	0.37103082650432	-6.588739325503728	-0.7523897904133222	2.500000024972019	-1.006617629693064e-12	0.04354198007498307	0.031491828342178986	3.7790908202988494
47	0.5177837406181903	-6.726110362662972	-0.7492618806957777	2.500000024971938	-1.0810395840768612e-12	0.04607411793460766	-0.1941440995318954	3.8594970079647823
48	0.6649656203320311	-6.863021698698438	-0.7459518200936746	2.5000000249718513	-7.065224428183044e-13	0.030463731033412517	-0.15463450284973695	3.9399031956307153
49	0.8125998777392205	-6.999445104648221	-0.7437641142761795	2.5000000249717944	-4.1241433823368455e-13	0.018030160177648327	0.043073192231810754	4.020309383296648
50	0.9605322358943486	-7.135545204066892	-0.7424695664418303	2.500000024971761	-5.035449650538553e-13	0.021493511355610107	-0.08824242641947896	4.10071557096258
51	1.1086406581327135	-7.271453683983231	-0.7409262829579342	2.5000000249717207	-3.3151335811178887e-13	0.014398274256828202	0.02036347048418444	4.181121758628513
52	1.256958649223542	-7.407133428860227	-0.7398925415633631	2.500000024971694	-3.650148917734238e-13	0.016035623286109222	0.16947246321857773	4.2615279462944455
53	1.4054168188101992	-7.542659778822454	-0.738741225602932	2.5000000249716647	-6.838004399839581e-13	0.029662257967870097	0.133196123609616	4.341934133960378
54	1.554030923619401	-7.678015116740331	-0.7366111105674183	2.5000000249716097	-9.238536598027923e-13	0.040372050479199686	0.322787568895949	4.422340321626311
55	1.7029330134910419	-7.813053582678591	-0.7337111753056722	2.500000024971535	-1.5196364130465425e-12	0.06632616832007762	0.22400848064482387	4.502746509292243
56	1.8522260795179772	-7.947659674990099	-0.7289425427453088	2.500000024971413	-1.9220472084263615e-12	0.08433783625356582	0.22913167928663797	4.583152696958176
57	2.002159332658557	-8.081552315765368	-0.7228734284904483	2.5000000249712584	1.5278154783104057e-14	0.10276144105849759	0.4072432487217856	4.663558884624108
58	2.1529024292219225	-8.214532534179886	-0.7154699789489418	2.5000000249712597	-8.008504575269015e-12	0.1355063181409057	-0.49999974428912564	4.743965072290041
59	2.3046258979526932	-8.346393099503214	-0.7056818290360409	2.500000024970616	-3.537547095042158e-13	0.09530324486867572	-0.4999997065134945	4.824371259955973
60	2.457632748961278	-8.476762279892956	-0.698819100961001	2.500000024970587	7.358748034040864e-15	0.05510017463384024	-0.4999993244464099	4.904777447621906
61	2.6115306781109022	-8.60607835412394	-0.694859383031644	2.5000000249705874	-2.1433894614502188e-16	0.014897135119562498	-0.49999436622023685	4.9851836352878385
62	2.7659394545906864	-8.734784023762348	-0.693789820111408	2.500000024970588	-1.4722737157224675e-15	-0.02530550572265106	0.25192425335666613	5.065589822953771
63	2.920485801536996	-8.863324469912992	-0.6956069216267429	2.500000024970588	1.7952563096446325e-15	-0.00504923692965493	0.05419331541305418	5.145996010619704
64	3.074798322427392	-8.992145530099231	-0.6959694156860602	2.500000024970588	-5.149963577345917e-16	-0.0006917590403137997	0.00864665541656676	5.226402198285636
65	3.2290641363112953	-9.121022519192676	-0.6960190779330627	2.500000024970588	8.214431940038981e-16	3.4855577933225245e-06	0.006299939863141815	5.306808385951569
66	3.3833235496841003	-9.249907169314147	-0.6960188277005477	2.500000024970588	-1.4856460492575353e-15	0.0005100397047131949	-0.004548532788510652	5.387214573617501
67	3.5375829953080307	-9.378791780834892	-0.6959822113146726	2.500000024970588	-1.1853602855249092e-15	0.00014430952371555838	-0.017137692304874025	5.467620761283434
68	3.691847160117216	-9.50767074384585	-0.695971851154992	2.500000024970588	-0.09213448179483388	-0.0012336669799111572	0.0315382472211607	5.548026948949366
69	3.8461126601247586	-9.63654810864851	-0.6960604176817932	2.4925918425368887	-1.0000000096342039	0.0013022032448080775	-0.01804395268738895	5.628433136615299
70	3.9999096483496	-9.765057196412052	-0.6959672078706762	2.41218565409625	-1.0000000098171027	-0.00014864220120933288	-0.012643911633920975	5.708839324281231
71	4.14875703467187	-9.889406956236517	-0.6959775042444899	2.3317794656408486	-1.0000000098780684	-0.0011652909328778553	0.030053576455338044	5.789245511947164
72	4.292641603770125	-10.009613205563275	-0.6960555327838173	2.251373277180488	-1.0000000099085513	0.0012512025756225183	-0.014048989430200531	5.8696516996130965
73	4.431555579494263	-10.125685251418291	-0.6959746405547298	2.1709670887176182	-1.0000000099268411	0.00012157689498110628	-0.02112375228475514	5.950057887279029
74	4.5655173953553465	-10.2376010309609	-0.695967061138991	2.0905609002532177	-1.0000000099390343	-0.001576903495435595	0.03181570886003056	6.030464074944962
75	4.694518479316884	-10.345370803882167	-0.6960617283841503	2.010154711787776	-1.0000000099477435	0.0009812763618887066	-0.0021587288845604565	6.110870262610894
76	4.818548172698029	-10.449007327551314	-0.6960050845815436	1.92974852332157	-1.0000000099542756	0.0008077012020768683	-0.009979444737226445	6.191276450276827
77	4.9376223137053765	-10.548491645621452	-0.6959603253129857	1.8493423348547728	-1.000000009959356	5.2920957336322815e-06	-0.02347329017852261	6.271682637942759
78	5.051739299366861	-10.643825676074963	-0.6959600442676103	1.7689361463874977	-1.0000000099634205	-0.0018821056794975568	0.034959872871501305	6.352088825608692
79	5.160894702584684	-10.735014718005313	-0.6960556509205285	1.688529957919823	-1.0000000099667459	0.0009288844193855343	-0.019968513075064236	6.432495013274624
80	5.265080174095781	-10.8220687647066	-0.6960106105439053	1.6081237694518031	-1.000000009969517	-0.0006767075903377162	0.04449741979072768	6.512901200940557
81	5.364308166812715	-10.904972911430763	-0.6960418606880701	1.5277175809834773	-1.000000009971862	0.0029011602960053316	-0.04352133724576643	6.5933073886064895
82	5.458572298619855	-10.98373479662513	-0.6959145844119585	1.4473113925148737	-1.0000000099738717	-0.0005982245140501198	-0.032467589830344555	6.673713576272422
83	5.547884656521989	-11.058339952701067	-0.6959394476494267	1.3669052040460117	-1.0000000099756137	-0.00320881963500934	0.05403738000270215	6.754119763938355
84	5.6322334648628285	-11.128802475090371	-0.6960654030037218	1.2864990155769038	-1.0000000099771378	0.0011361200824632602	-0.022401942713838184	6.834525951604287
85	5.711612224900586	-11.195130141927676	-0.6960234304569627	1.206092827107557	-1.0000000099784827	-0.0006651347274670918	-0.0007560731146923158	6.91493213927022
86	5.786032422315507	-11.257309206037453	-0.6960464672415856	1.125686638637973	-1.000000009979678	-0.0007259276842162089	0.07253955883846905	6.995338326936152
87	5.855489936305977	-11.315344599300019	-0.696069933420984	1.045280450168147	-1.0000000099807476	0.005106701696953718	-0.07857982910841209	7.075744514602085
88	5.919984934687082	-11.369236120795842	-0.6959166452886806	0.9648742616980703	-1.0000000099817101	-0.0012116027890942051	-0.002777918973888182	7.156150702268017
89	5.97952640412188	-11.418973014222132	-0.6959502161619372	0.884468073227727	-1.0000000099825812	-0.0014349646634294138	0.04579569102116816	7.23655688993395
90	6.034104553838316	-11.464566998791677	-0.6959866626012094	0.8040618847570935	-1.000000009983373	0.0022472922631097143	0.0697757783058535	7.316963077599882
91	6.0837195428766515	-11.506017883990578	-0.6959347728960301	0.723655696286136	-1.0000000099840958	0.007857696588106708	0.01353303034591614	7.397369265265815
92	6.12837496873818	-11.54332136356322	-0.6957714798769997	0.6432495078148067	-1.0000000099847586	0.008945835965789205	-0.2545476695303079	7.4777754529317475
93	6.168074094662052	-11.57647352992444	-0.6956062291349182	0.5628433193430383	-1.000000009985368	-0.011521371720390621	-0.49989121292066596	7.55818164059768
94	6.202815622989094	-11.605475934823513	-0.6957924560123074	0.4824371308707331	-1.000000009985931	-0.05171571839904052	-0.49996367278918574	7.638587828263613
95	6.232589445872944	-11.630340684140252	-0.6965095600129797	0.40203094239774423	-1.0000000099864519	-0.09191589129947686	-0.4999720135076446	7.718994015929545
96	6.2573860997223365	-11.651079095681624	-0.6975737201577774	0.32162475392384016	-1.000000009986936	-0.13211673484528688	-0.499964260077539	7.799400203595478
97	6.27720575638057	-11.667690925605749	-0.6988010913523497	0.241218565448627	-1.0000000099873863	-0.17231695496734079	-0.49981058469288064	7.87980639126141
98	6.292055196021011	-11.680168033217157	-0.7000066788507897	0.16081237697135486	-1.0000000099878068	-0.2125048186375762	0.008657926306112578	7.960212578927343
99	6.301944787093378	-11.6884980337766	-0.7010030629703699	0.08040618849031429	-1.0000000099882	-0.21180866779020913	0.013630467351483655	8.040618766593276
100	6.30688543023614	-11.692667958904266	-0.7014995730513655	0.0	0.0	-0.21071269387437136	0.0	8.121024954259209
101	6.30688543023614	-11.692667958904266	-0.7014995730513656	-9.999112458570932e-09	-1.000000009984529	-0.747399512004043	-0.0442554705298951	8.179785986113462
102	6.306885429786444	-11.692667958525183	-0.701499572855934	-0.06122749882434407	-1.0000000099841435	-0.7500000091175751	-7.313916233313926e-09	8.238547017967715
103	6.304137166184557	-11.690346074091869	-0.700302540916169	-0.11998853130222302	-1.000000009983739	-0.7500000095473484	-2.4936372526731223e-09	8.297308049821968
104	6.298745906118763	-11.68580228942875	-0.6979566978358651	-0.17874956376137657	-1.0000000099833135	-0.750000009693877	-1.2494980274303355e-09	8.356069081676221
105	6.290698570146937	-11.679052172311737	-0.6944620436153965	-0.23751059621426726	-1.0000000099828654	-0.7500000097672989	-7.453061867614084e-10	8.414830113530474
106	6.279974523853414	-11.67012048541819	-0.6898185782548946	-0.29627162866400963	-1.0000000099823931	-0.7500000098110939	-4.909951664842552e-10	8.473591145384727
107	6.266545716979955	-11.659041301462896	-0.6840263017544296	-0.35503266111184845	-1.0000000099818944	-0.7500000098399453	-3.4462370388372747e-10	8.53235217723898
108	6.250376876534813	-11.645858160317273	-0.6770852141140478	-0.4137936935584053	-1.000000009981367	-0.7500000098601958	-2.523586082898726e-10	8.591113209093233
109	6.231425755124405	-11.63062426656369	-0.6689953153337836	-0.4725547260040343	-1.0000000099808086	-0.7500000098750246	-1.9016456617526003e-10	8.649874240947486
110	6.209643436068336	-11.613402725485619	-0.6597566054136647	-0.5313157584489562	-1.0000000099802162	-0.7500000098861989	-1.45862761824152e-10	8.70863527280174
111	6.184974697154154	-11.594266815027542	-0.6493690843537147	-0.590076790893317	-1.0000000099795865	-0.7500000098947699	-1.1324834643016834e-10	8.767396304655993
112	6.157358435158322	-11.573300290772929	-0.6378327521539556	-0.6488378233372184	-1.000000009978916	-0.7500000099014245	-8.778142993121269e-11	8.826157336510246
113	6.126728153498989	-11.550597720481614	-0.6251476088144071	-0.7075988557807331	-1.0000000099782003	-0.7500000099065827	-6.746973400183747e-11	8.884918368364499
114	6.093012515589117	-11.526264844197312	-0.6113136543350893	-0.7663598882239151	-1.0000000099774349	-0.7500000099105472	-5.060420714568095e-11	8.943679400218752
115	6.056135966619401	-11.500418955380141	-0.5963308887160219	-0.8251209206668046	-1.0000000099766144	-0.7500000099135208	-3.609017983370974e-11	9.002440432073005
116	6.016019426613339	-11.473189297936651	-0.5801993119572253	-0.8838819531094328	-1.0000000099757325	-0.7500000099156414	-2.3122157012095246e-11	9.061201463927258
117	5.972581057655391	-11.44471747341034	-0.5629189240587215	-0.9426429855518229	-1.0000000099747823	-0.7500000099170001	-1.1082082348486422e-11	9.119962495781511
118	5.925737108190753	-11.415157851959313	-0.5444897250205339	-1.0014040179939931	-1.0000000099737552	-0.7500000099176513	5.454214744031874e-13	9.178723527635764
119	5.8754028372249545	-11.38467798008527	-0.5249117148426888	-1.0601650504359568	-1.0000000099726416	-0.7500000099176193	1.2184959645092209e-11	9.237484559490017
120	5.821493521105992	-11.353458977391421	-0.5041848935252159	-1.118926082877724	-1.00000000997143	-0.7500000099169033	2.4499569878432377e-11	9.29624559134427
121	5.763925545343674	-11.321695913938868	-0.4823092610681491	-1.1776871153193014	-1.0000000099701065	-0.7500000099154637	3.7718313880031704e-11	9.355006623198523
122	5.702617583602465	-11.289598159045381	-0.45928481747152866	-1.2364481477606932	-1.0000000099686552	-0.7500000099132472	5.254782927790018e-11	9.413767655052776
123	5.637491865587813	-11.257389691632378	-0.43511156273540236	-1.2952091802019012	-1.0000000099670565	-0.7500000099101595	6.979287823740136e-11	9.47252868690703
