	x	y	theta	v	a	sigma	omega	t
0	7.96019900497512	-0.820895522388057	-0.292805411327151	0.00010000995686310798	-1.000000005976275	0.717923007570149	0.49999630700061354	0.06415447803679675
1	7.9654687264211494	-0.8208973743137947	-0.5960775746571784	-0.06405446846334485	-1.0000000047053017	0.7500000096660994	2.579562557877014e-09	0.1283089560735935
2	7.967420647323173	-0.8185903644437584	-0.597444819417087	-0.12820894680201264	-1.0000000027183473	0.7500000098315899	8.46164831057933e-10	0.19246343411039024
3	7.9661159554494025	-0.8139634406178738	-0.600181443371242	-0.19236342501320708	-0.9999999993557731	0.7500000098858751	4.143734752079053e-10	0.256617912147187
4	7.961616299328654	-0.8069933539227193	-0.6042874466012094	-0.2565179030086762	-0.9999999929732346	0.7500000099124591	2.4080246653951677e-10	0.32077239018398374
5	7.953983668276396	-0.7976430133082735	-0.6097628291192281	-0.320672380594676	-0.999999978455002	0.7500000099279076	1.5292862585205053e-10	0.3849268682207805
6	7.943276777251787	-0.7858616574045351	-0.6166075909221653	-0.38482685724926546	-0.9999999323594876	0.7500000099377186	1.0137701488201478e-10	0.44908134625757723
7	7.929544377214911	-0.7715850958043895	-0.624821731992537	-0.4489813309466208	-0.9999995742928253	0.7500000099442224	6.748740826603936e-11	0.513235824294374
8	7.912705120214257	-0.7547360230627363	-0.6344052522684123	-0.513135781672396	-0.2722979459292167	0.7500000099485521	-1.9725578410603718e-11	0.5773903023311707
9	7.892213973487295	-0.7352244100628904	-0.6453581512601166	-0.5306049142639767	0.0074106081860368465	0.7500000099472866	-5.281099007590437e-11	0.6415447803679675
10	7.870693230791806	-0.714749464516743	-0.6566839294215069	-0.5301294905638663	0.007969127565423811	0.7500000099438985	-6.007906320825494e-11	0.7056992584047642
11	7.849232067813569	-0.6939864594808598	-0.6679995596487578	-0.5296182353444978	0.0074169044325336966	0.7500000099400442	-6.880167655866757e-11	0.769853736441561
12	7.830157570046691	-0.6729403000414527	-0.6793042771171446	-0.5291424077119798	0.0068656641800492425	0.7500000099356302	-7.958414321278778e-11	0.8340082144783577
13	7.809303685883534	-0.6516131240059505	-0.6905988380296854	-0.5287019446101329	0.006319228996121415	0.7500000099305245	-9.313153895206938e-11	0.8981626925151545
14	7.788372888613839	-0.6300070141694466	-0.7018839972434257	-0.5282965377722917	0.005777149626445347	0.7500000099245496	-1.1052573895624763e-10	0.9623171705519512
15	7.765510764335885	-0.6081240099933086	-0.7131605030354252	-0.5279259077534666	0.005240560548912761	0.750000009917459	-1.331319280194043e-10	1.026471648588748
16	7.743152709987409	-0.585966108613848	-0.7244290977179626	-0.5275897023268309	0.004505286590975913	0.7500000099089179	-1.6360407414873953e-10	1.0906261266255446
17	7.720999817592227	-0.5635352700788765	-0.7356905160850075	-0.5273006680171807	0.0019177198008257365	0.750000009898422	-2.0578522700556528e-10	1.1547806046623412
18	7.69904318761338	-0.5408328557357777	-0.7469457650054743	-0.5271776377043378	0.0035496351315638507	0.75000000988522	-2.67556194746844e-10	1.2189350826991379
19	7.6783397264996225	-0.5178549717855364	-0.7581983878397173	-0.5269499127152512	-0.19574707860278232	0.7500000098680549	-3.141693598025804e-10	1.2830895607359345
20	7.657870731386681	-0.49460934234467274	-0.7694461498765867	-0.5395079643702405	-0.9999921841759939	0.7500000098478996	-0.3620315564899933	1.3472440387727311
21	7.6330091746111455	-0.4705285784709741	-0.7809619639103228	-0.6036619409869277	-0.9999999661817975	0.726774064308435	-0.5000000072309747	1.4113985168095278
22	7.605503402595944	-0.44326577048545135	-0.7932597072358056	-0.667816416854136	-0.9999999950661975	0.6946968248261278	-0.500000008421281	1.4755529948463244
23	7.575447634333566	-0.4127336763397023	-0.8060096485273635	-0.7319708945744089	-0.9999999818097615	0.6626195852674502	-0.5000000088712002	1.539707472883121
24	7.542933870645255	-0.37885119357263436	-0.8190963576983101	-0.7961253714442214	-0.9999999439944447	0.6305423456799018	-0.5000000091012254	1.6038619509199177
25	7.5080556865244965	-0.341539416885102	-0.8324113516949986	-0.8602798458880113	-0.9999997576434562	0.5984651060775904	-0.5000000092353641	1.6680164289567143
26	7.470907065779978	-0.30072269389365125	-0.8458520053602055	-0.9244343083765505	0.48919007359949535	0.5663878664666683	-0.500000009317736	1.732170906993511
27	7.431581228668778	-0.256329548000353	-0.8593206223772075	-0.8930505745439927	0.9999986885286487	0.5343106268504577	-0.5000000093645162	1.7963253850303076
28	7.394171513160397	-0.21293573273127023	-0.8714283555103637	-0.8288961806439559	0.9999973117388156	0.5022333872312431	-0.5000000093894773	1.8604798630671042
29	7.3599394032647485	-0.17224176860905374	-0.881858836436121	-0.7647418750711523	-0.650297840966179	0.4701561476104255	-0.5000000094007746	1.9246343411039009
30	7.328750082042676	-0.13437003258644672	-0.8907628600230664	-0.8064613936267935	-0.9999992511007764	0.4380789079888823	-0.5000000094018575	1.9887888191406975
31	7.296216173192314	-0.09414097869543649	-0.8994185676828037	-0.8706158236183514	-0.9999996308365916	0.4060016683672696	-0.5000000093912368	2.052943297177494
32	7.261471396985845	-0.050409307234360656	-0.9079938532752837	-0.9347702779716625	-0.9999996300966528	0.37392442874633897	-0.5000000093654301	2.1170977752142908
33	7.224570339463564	-0.003136939153399806	-0.9163978544118045	-0.9989247322775031	0.32211794889773043	0.34184718912706574	-0.500000009317735	2.1812522532510874
34	7.1855626463650415	0.04770940311965333	-0.924541668962008	-0.9782594233996856	0.9999998795276794	0.3097699495108551	-0.5000000092436646	2.245406731287884
35	7.147768706099069	0.09781330388245743	-0.931715864386204	-0.9141049530917276	-0.9999999716953556	0.2776927098994002	-0.5000000091370754	2.3095612093246807
36	7.112790088797617	0.14488353231164042	-0.9376861910420043	-0.9782594293126553	-0.9999999913737306	0.24561547029478764	-0.5000000089487988	2.3737156873614773
37	7.075657986114555	0.1954798739820085	-0.9433049057709736	-1.0424139067960396	-0.9999999964571299	0.21353823070225922	-0.5000000085578766	2.437870165398274
38	7.036394304581359	0.2496158001272899	-0.9484840379815083	-1.1065683846055472	-0.999999998276387	0.18146099113481687	-0.5000000073592857	2.5020246434350706
39	6.9950123635036165	0.3072985710383586	-0.9531359798360406	-1.1707228625317687	-0.9999999984711967	0.14938375164427758	-0.22537997274086682	2.566179121471867
40	6.951515627131864	0.36852856796938877	-0.9571731200565265	-1.2348773404704882	-0.9999999899270832	0.1349246171331398	0.5000000072435536	2.630333599508664
41	6.905896425033691	0.4332986078156332	-0.96101399888141	-1.2990318178610634	-0.9999999628496259	0.16700185661625394	0.5000000085897229	2.6944880775454605
42	6.858169260887069	0.501617405314199	-0.9660313437140151	-1.3631862935144978	0.9458070691106503	0.19907909618573977	0.5000000090321551	2.758642555582257
43	6.8084453614685945	0.5735606071729894	-0.9723327990335877	-1.3025085346721916	0.9999999400911626	0.231156335783618	0.5000000092348488	2.8227970336190538
44	6.761368866094528	0.6425995129589589	-0.9793568635783128	-1.2383540604788146	0.9999999654175499	0.263233575394507	0.5000000093482346	2.8869515116558504
45	6.717073251262873	0.7085506980034678	-0.9870031665714399	-1.1741995846606363	0.9999999702305773	0.295310815012676	0.5000000094185654	2.951105989692647
46	6.6755518068670705	0.7714045195390099	-0.9951874056665388	-1.1100451085336809	0.9999999668703676	0.32738805463536186	0.5000000094646578	3.0152604677294437
47	6.636786574341019	0.8311434721860682	-1.0038249217291648	-1.0458906326222976	0.9999999520728381	0.35946529426100854	0.5000000094955941	3.0794149457662403
48	6.600749289013119	0.8877432234468362	-1.0128303286150893	-0.9817361576602426	0.9999999090581083	0.3915425338886429	0.500000009516269	3.143569423803037
49	6.567402318976691	0.941173636158795	-1.0221171208558806	-0.9175816854577752	-0.9484581157630586	0.4236197735176059	0.5000000095295727	3.2077239018398336
50	6.536699614996183	0.9913997708538617	-1.0315972528161526	-0.978429520814318	-0.9999999149255577	0.45569701314742384	0.500000009537694	3.27187837987663
51	6.504470103556252	1.045264520330787	-1.0425843759273445	-1.0425839933932086	-0.9999999614994379	0.48777425277776376	0.5000000095397256	3.336032857913427
52	6.470760024620844	1.1030349742950705	-1.0552577436047417	-1.1067384689600224	-0.9999999757881113	0.5198514924082344	0.5000000095340753	3.4001873359502235
53	6.435755677129357	1.1648088534931047	-1.0697717315204427	-1.1708929454435186	-0.999999981496226	0.5519287320383417	0.5000000095179528	3.46434181398702
54	6.3996746524434425	1.2306941891185346	-1.086291314754636	-1.2350474222932164	-0.9999999828109463	0.5840059716674129	0.5000000094861244	3.5284962920238168
55	6.362769883224348	1.300808643212973	-1.1049935831883646	-1.2992018992272596	-0.9999999794506692	0.6160832112944388	0.5000000094277357	3.5926507700606134
56	6.325334221155486	1.3752783035529637	-1.126069499652305	-1.3633563759457255	-0.9999999627126795	0.6481604509177137	0.5000000093165087	3.65680524809741
57	6.287705610934377	1.4542358035595642	-1.1497259524370491	-1.4275108515903743	-0.18741079396955285	0.6802376905338455	0.5000000090689638	3.7209597261342067
58	6.250272928580577	1.5378175777198406	-1.1761881666612286	-1.4395340932559526	0.9999999787948151	0.7123149301340862	0.50000000827286	3.7851142041710033
59	6.21476831144872	1.623072590473413	-1.2046710767872053	-1.3753796165795624	0.9999999968335521	0.7443921696832405	0.08741151648945274	3.8492686822078
60	6.183179534008753	1.7054611528041326	-1.2337002175014857	-1.3112251387459057	1.0000000017451494	0.7500000098980262	8.010562675096377e-11	3.9134231602445966
61	6.155356690477051	1.7848477135275334	-1.2616883582749023	-1.2470706605971464	1.000000003936744	0.7500000099031653	5.123699819287935e-11	3.977577638281393
62	6.1310183982428725	1.8610610609589964	-1.2883071197463272	-1.1829161823077858	1.0000000051765114	0.7500000099064523	2.8691585992709587e-11	4.04173211631819
63	6.109864459715206	1.9339425222489373	-1.313556501912636	-1.1187617039388875	1.0000000059729917	0.7500000099082931	9.833108180686177e-12	4.105886594354987
64	6.091604389187792	2.0033544493869404	-1.3374365047720425	-1.0546072255188903	1.0000000065272083	0.7500000099089238	-7.049897062669966e-12	4.1700410723917845
65	6.075958692440855	2.069178357188935	-1.3599471283233893	-0.9904527470633364	1.0000000069345862	0.7500000099084715	-2.3204648562071617e-11	4.2341955504285815
66	6.062659968337833	2.1313131061903086	-1.381088372565867	-0.9262982685816465	1.0000000072462392	0.7500000099069828	-3.9679080667904974e-11	4.298350028465379
67	6.051453848610047	2.1896731437081205	-1.4008602374988774	-0.8621437900799617	1.000000007492013	0.7500000099044372	-5.758281775506045e-11	4.362504506502176
68	6.042099791761738	2.2441868143989856	-1.4192627231219617	-0.7979893115625085	1.0000000076905025	0.750000009900743	-7.777709478626312e-11	4.426658984538973
69	6.034371746600174	2.294794749884548	-1.4362958294347559	-0.7338348330323204	1.0000000078538953	0.7500000098957532	-1.0221853678260437e-10	4.49081346257577
70	6.028058700326173	2.341448345442329	-1.4519595564369663	-0.6696803544916491	1.0000000079905107	0.7500000098891955	-1.328334515855483e-10	4.554967940612567
71	6.022965125432684	2.3841083303619324	-1.46625390412835	-0.6055258759422125	1.00000000810622	0.7500000098806736	-1.7308520328777316e-10	4.619122418649364
72	6.018911338873525	2.422743437338836	-1.4791788725087032	-0.5413713973853519	1.0000000082052158	0.7500000098695694	-2.281462218071456e-10	4.683276896686161
73	6.015733786099323	2.4573291752123674	-1.4907344615778526	-0.4772169188221394	1.0000000082906744	0.7500000098549329	-3.0786890494041526e-10	4.747431374722958
74	6.0132852616289965	2.4878467084414306	-1.5009206713356495	-0.4130624402534437	1.000000008365195	0.7500000098351817	-4.3054515443876e-10	4.811585852759755
75	6.011435076846213	2.5142818459406833	-1.509737501781965	-0.34890796167996646	1.0000000084304836	0.7500000098075603	-6.351644498450362e-10	4.875740330796552
76	6.01006918469288	2.53662414125974	-1.5171849529166863	-0.2847534831023	1.0000000084879892	0.7500000097668117	-1.0177971366863087e-09	4.939894808833349
77	6.009090269885112	2.5548661055664605	-1.5232630247397134	-0.2205990045209437	1.0000000083536704	0.7500000097015154	-1.8677860126918455e-09	5.0040492868701465
78	6.008417812209309	2.5690025344799414	-1.527971717250958	-0.15644452594820593	1.0000000081894374	0.7500000095816886	-4.734525477612806e-09	5.068203764906944
79	6.007988129372946	2.579029949477425	-1.531311030450595	-0.09229004738600585	1.0000000063376584	0.7500000092779475	-2.5864829927128117e-08	5.132358242943741
80	6.009783521954489	2.5849461543534455	-1.5332809643390548	-0.02813556894261291	-0.5614403103423493	0.7500000076186029	2.062088743188267e-08	5.196512720980538
81	6.012242652764629	2.5867499070452697	-1.533881518918333	-0.06415447900144351	-1.000000006384002	0.7500000089415251	8.027663383447424e-09	5.260667199017335
82	6.015164320166035	2.5908629001729104	-1.5352508982368374	-0.12830895744780968	-1.0000000082119889	0.7500000094565357	2.585357549801543e-09	5.324821677054132
83	6.018158197487232	2.599089294695699	-1.5379896568641755	-0.1924634360114567	-1.0000000088210128	0.750000009622398	1.2099335335716497e-09	5.388976155090929
84	6.02087354339044	2.6114300419596015	-1.542097794802794	-0.25661791461418276	-1.000000009125317	0.7500000097000207	6.34735986428273e-10	5.453130633127726
85	6.0231091028968535	2.627886451203418	-1.5475753120534597	-0.3207723932364389	-1.0000000093077415	0.7500000097407419	9.711345067774532e-10	5.517285111164523
86	6.024861163285449	2.648459888654953	1.5483747521518403	-0.3849268718704062	-1.0000000081586493	0.7500000098030445	6.847010563387409e-10	5.58143958920132
87	6.026215189922404	2.623771313214576	1.5401584762754927	-0.4490813504306308	1.0000000072569524	0.7500000098469711	-1.908402867000934e-10	5.645594067238117
88	6.027041410304725	2.594974254450677	1.5305728210874099	-0.3849268719282587	1.0000000092101444	0.7500000098347278	-3.349134211663351e-10	5.709748545274914
89	6.027657244227004	2.570299446426057	1.522356545209175	-0.3207723933005573	1.0000000095373223	0.7500000098132417	-5.654590737125755e-10	5.7739030233117115
90	6.028163424573634	2.549744599638259	1.5155096486435298	-0.25661791465184286	1.0000000096721724	0.750000009776965	-1.0086138733422793e-09	5.8380575013485085
91	6.028630335627284	2.5333065656892964	1.5100321313909761	-0.1924634359944542	1.0000000097457542	0.7500000097122579	-2.09941373341654e-09	5.902211979385306
92	6.029334558064101	2.520981962457588	1.505923993451744	-0.128308957332322	1.0000000097920905	0.7500000095775711	-6.451770933422334e-09	5.966366457422103
93	6.030190330681014	2.5127676831998897	1.5031852348259758	-0.0641544786671943	1.0000000098239477	0.750000009163661	-0.062205440083945296	6.0305209354589
94	6.030520935458868	2.5086612897128324	1.5018158555137724	0.0	0.0	0.7460092516240263	0.0	6.094675413495697
95	6.030520935458868	2.5086612897128324	-1.5018158555131034	-8.571628365477905e-09	-0.951517381633537	-0.5933142118577225	-0.08373836662421512	6.23759053722717
96	6.015432358164232	2.5086612909347905	-1.5018158552179577	-0.13598623290043285	0.16164494181626596	-0.6052816908848936	0.4999999940853217	6.380505660958644
97	5.999302380680938	2.5280495609486073	-1.497013323950729	-0.11288472604019438	0.05974093728340884	-0.5338241298644532	0.4999999989705953	6.523420784690117
98	5.985448109332328	2.5441386021605545	-1.4936077448752665	-0.10434684259650182	-0.07328252002447677	-0.462366568145833	0.4999999998816943	6.6663359084215905
99	5.972479637494931	2.5590069405006552	-1.4909532782883173	-0.11482002301315408	-0.30114204379683074	-0.39090900629700287	0.4999999988275148	6.809251032153064
100	5.960146133717895	2.5753641814576356	-1.4885380439377207	-0.15785777546312693	-0.678200096692959	-0.319451444598831	0.49999998804533496	6.952166155884537
101	5.949301613803033	2.597848161831384	-1.4858728653030204	-0.2547828261966983	0.9999998194831072	-0.24799388444159626	-0.5000000001883684	7.095081279616011
102	5.937722123354742	2.6341292571364754	-1.4825800719861475	-0.11186772826381895	0.6850472753511113	-0.3194514463342548	-0.5000000046065917	7.237996403347484
103	5.927718831864132	2.6500546791212654	-1.4806913624808773	-0.013964112145106197	0.21193853366341237	-0.39090900885834523	-0.5000000049152223	7.380911527078958
104	5.9120974624879	2.652042266036664	-1.4803976279677606	0.016325109616867405	1.0000000093457748	-0.46236657142654375	-0.5000000045358111	7.523826650810431
105	5.873118033133081	2.64971868746519	-1.4808129204413971	0.159240234684011	-1.0000000091376475	-0.5338241339405185	0.487382859212643	7.666741774541904
106	5.875705074652919	2.62705292272989	-1.485616982384018	0.01632510964661624	-1.0000000097277189	-0.4641697523115444	0.49999995373548695	7.809656898273378
107	5.876448169122876	2.6247282764945745	-1.4860341522768377	-0.12659001547513773	-1.0000000094603056	-0.3927121970577061	-0.49999999882957863	7.952572022004851
108	5.8789542701239705	2.642754952330066	-1.4833576967201383	-0.2695051405586532	0.9202302685143362	-0.4641697587561729	-0.5000000056146781	8.095487145736325
109	5.888550809386343	2.681124167938012	-1.4764707945932642	-0.13799031787247995	1.0000000094296522	-0.5356273214243346	-0.5000000063612748	8.238402269467798
110	5.900924867149101	2.7007574048632432	-1.4722906584355957	0.004924807206653582	1.0000000097043358	-0.6070848841991968	-0.5000000063363778	8.381317393199271
111	5.915931274129021	2.7000569874294933	-1.4724652555322593	0.14783993232506237	1.0000000097937287	-0.6785424469705008	-0.5000000040659079	8.524232516930745
112	5.931641928177058	2.6790304889610774	-1.4785491760970422	0.2907550574562638	1.000000009704573	-0.7500000094173191	-3.097359149103399e-09	8.667147640662218
113	5.947168717287912	2.6376538682580155	-1.4923744986924468	0.4336701825747065	1.0000000094346864	-0.7500000098599787	-4.967445114426142e-10	8.810062764393692
114	5.952826719566548	2.5758663247163516	-1.5129953959911255	0.5765853076545596	0.46107652174332653	-0.750000009930971	1.5841397429004015e-11	8.952977888125165
115	5.958377660427922	2.493601177464291	-1.540411867984211	0.6424801158091845	-0.012071987213332913	-0.7500000099287071	9.050364504986206e-11	9.095893011856639
116	5.961167135980067	2.4018234338317	-1.570961619889442	0.6407548462629064	-0.010067748053031522	-0.7500000099157728	1.2984361217036393e-10	9.238808135588112
117	5.961151999502624	2.310249876947581	-1.6014293357038125	0.63931601280421	-0.008124604710942271	-0.750000009897216	2.0216897456997477e-10	9.381723259319585
118	5.95835356269257	2.2189248154961954	-1.63182863538377	0.6381548839166764	-0.05551395576200852	-0.750000009868323	1.2704891581770627e-09	9.524638383051059
119	5.9527907500763435	2.1278926396634	-1.6621727237042832	0.6302211000601253	-0.9999996242019128	-0.750000009686751	0.5000000068717619	9.667553506782532
120	5.944572097491151	2.0382002700900332	-1.6921395627846445	0.4873060300358821	-0.8244598133850337	-0.678542446838932	0.500000008557149	9.810468630514006
121	5.936142064924558	1.969068960727111	-1.7121932189925577	0.3694782537943326	-0.5029592332063181	-0.6070848837502412	0.5000000088459352	9.953383754245479
122	5.928700593420006	1.9167919091289156	-1.7252921744649257	0.29759777274876464	-0.2542266155195682	-0.5356273206202766	0.5000000089429253	10.096298877976952
123	5.92215580505365	1.8747672659558159	-1.7343072939836917	0.26126494453595184	0.04164052858282025	-0.4641697574764498	0.5000000089758261	10.239214001708426
124	5.91607768481721	1.837926583838349	-1.7409836271063046	0.26721600583060956	-0.881821411136756	-0.39271219432792054	0.500000008971241	10.3821291254399
125	5.9096096951800465	1.800289092441013	-1.7466332966752818	0.14119038974893763	0.37494689924440583	-0.3212546311800466	0.5000000089596116	10.525044249171373
