	x	y	theta	v	a	sigma	omega	t
0	-12.6865671641791	-1.318407960199	0.0587558227157226	0.00010000999910725188	1.0000000099869761	0.7214961731565653	-0.0020476549676723232	0.07051020029025348
1	-12.686560124621824	-1.3184075461073308	0.05875803826319305	0.07061021108355653	1.000000009986592	0.7213517925946693	-0.49999955862004225	0.14102040058050697
2	-12.681589976590201	-1.318115173408644	0.06032182923610513	0.141120412101178	1.000000009986185	0.6860967235713318	-0.49999985047276924	0.21153060087076045
3	-12.671657646005242	-1.31751530930277	0.06323160119033218	0.21163061310871226	1.0000000099857527	0.6508416339693999	-0.4999999241610645	0.28204080116101393
4	-12.656765350216535	-1.3165723885865044	0.06729006138169528	0.2821408141121504	1.0000000099852928	0.6155865391716914	-0.49999995402858965	0.3525510014512674
5	-12.636916567011934	-1.3152347432050315	0.07231514451711527	0.35265101511335434	1.0000000099848023	0.5803314422680177	-0.4999999690726067	0.42306120174152084
6	-12.612116061776732	-1.3134381582573371	0.07813759758601713	0.4231612161131413	1.000000009984278	0.5450763443035871	-0.49999997763163434	0.4935714020317743
7	-12.582369918560126	-1.311109124198272	0.08459895764765661	0.49367141711194124	1.0000000099837167	0.5098212457356575	-0.49999998285238423	0.5640816023220278
8	-12.547685537045677	-1.3081678414209443	0.09154984223744447	0.5641816181100076	1.0000000099831137	0.4745661467996117	-0.4999999861346254	0.6345918026122812
9	-12.508071569610914	-1.3045310227580573	0.0988484899023064	0.6346918191075013	1.0000000099824646	0.43931104763213435	-0.49999998816842356	0.7051020029025347
10	-12.463537781994209	-1.3001145311752877	0.10635950174131577	0.7052020201045304	1.0000000099817636	0.4040559483212533	-0.49999998931121586	0.7756122031927881
11	-12.414094828403366	-1.2948358836143317	0.11395274492703202	0.7757122211011701	1.0000000099810042	0.36880084892979376	-0.4999999897519464	0.8461224034830416
12	-12.359753937794514	-1.2886166472342095	0.12150238687184212	0.8462224220974742	1.0000000099801787	0.3335457495072582	-0.4999999895407744	0.916632603773295
13	-12.300526512952	-1.2813847509211949	0.12888603459365922	0.9167326230934822	1.0000000099792783	0.2982906500996124	-0.4999999886451488	0.9871428040635485
14	-12.236423648227461	-1.2730767326680943	0.13598395836758545	0.9872428240892225	1.000000009978292	0.2630355507551174	-0.4999999869771945	1.057653004353802
15	-12.167455575592191	-1.2636399420813762	0.1426783822449497	1.0577530250847158	1.0000000099772073	0.2277804515282303	-0.49999998427764997	1.1281632046440555
16	-12.093631052215335	-1.2530347167097837	0.14885282671351963	1.1282632260799765	1.000000009976008	0.1925253524916887	-0.49999998008772684	1.198673404934309
17	-12.014956706265446	-1.2412365509732997	0.15439149083554574	1.198773427075014	1.0000000099746755	0.15727025375057954	-0.499999973594142	1.2691836052245626
18	-11.931436361193466	-1.2282382770949347	0.1591786627602114	1.2692836280698334	1.0000000099731863	0.12201515546733448	-0.49999996303098665	1.3396938055148162
19	-11.84307036253503	-1.214052278497303	0.1630981486582639	1.3397938290644356	1.0000000099715107	0.08676005792889978	-0.49999994480294524	1.4102040058050698
20	-11.749854935417563	-1.1987127575216459	0.16603271093730182	1.410304030058817	1.0000000099696116	0.05150496167572807	-0.4999999102540893	1.4807142060953233
21	-11.65178160563341	-1.1822780809557192	0.16786350711338865	1.4808142310529704	1.000000009967441	0.01624986785860324	-0.4999998337937397	1.551224406385577
22	-11.548836722523365	-1.1648332286048573	0.16846952097608073	1.5513244320468842	1.0000000099649367	-0.019005220567286936	-0.4999996185915844	1.6217346066758305
23	-11.441001128210768	-1.1464923718740052	0.16772697772228545	1.6218346330405404	1.000000009962015	-0.05426029381922996	-0.49999857552196747	1.692244806966084
24	-11.328250025172231	-1.1274016108824534	0.1655087346441659	1.6923448340339151	1.0000000099585618	-0.08951529352412532	0.3559398119471749	1.7627550072563376
25	-11.210553103005234	-1.1077418997881934	0.16168363996229543	1.762855035026975	1.000000009954418	-0.06441790609245487	0.49998839229882824	1.8332652075465912
26	-11.08787499590328	-1.08773219031988	0.15881999990079124	1.8333652360196755	1.0000000099493533	-0.029163624408662662	0.49993683564340635	1.9037754078368447
27	-10.96023097361529	-1.0672875800894033	0.15747318610956643	1.9038754370119548	1.0000000099430224	0.0060870220050294535	-0.0519620490798375	1.9742856081270983
28	-10.827649359823377	-1.046235225189074	0.1577650246760681	1.9743856380037264	1.0000000099348827	0.0024231675169181298	-0.07098887379565687	2.044795808417352
29	-10.690163951118617	-1.02436306992353	0.15788550335278792	2.044895838994865	1.0000000099240298	-0.002582272192793163	0.07108983628796878	2.115306008707605
30	-10.54777132823481	-1.0016926503845602	0.15775252893665656	2.1154060399851815	1.000000009908836	0.0024302864024728444	-0.03786723888246675	2.1858162089978586
31	-10.40046573781626	-0.9782601181411561	0.15788199202683226	2.1859162409743713	1.0000000098860449	-0.00023974019556876036	0.00023064091976106977	2.256326409288112
32	-10.248253329230398	-0.9540268323252585	0.15786879523708888	2.2564264419619002	1.0000000098480597	-0.00022347765812127907	-0.019682110163538522	2.3268366095783652
33	-10.091130737491238	-0.9290139368890244	0.15785609683086177	2.326936642946698	1.0000000097720894	-0.0016112671878872142	0.05007824115714601	2.3973468098686186
34	-9.929097954851143	-0.9032214806712381	0.15776168065318177	2.3974468439260863	1.0000000095441777	0.0019197596262867656	-0.024521098896463974	2.467857010158872
35	-9.762152790649173	-0.8766632306693325	0.1578775824826681	2.4679570448893533	0.454444604420386	0.0001907720317599767	0.07922677454620387	2.5383672104491253
36	-9.590300849223441	-0.8493039701144218	0.15788943870197059	2.5000000249678602	-3.0180589211949355e-15	0.005777067773363569	0.44916484335922885	2.6088774107393786
37	-9.416217978627673	-0.8215874237535237	0.15825314114976946	2.5000000249678602	-2.421426522682696e-15	0.03744777084196313	-0.4999919614013459	2.679387611029632
38	-9.242145200121232	-0.7938075648610311	0.16061178829901207	2.50000002496786	-3.340065539235205e-15	0.0021932375000375415	-0.4999992150554607	2.7498978113198853
39	-9.068138428641063	-0.76561720735909	0.16074986496411978	2.5000000249678593	-6.896686944798061e-15	-0.03306180729849254	-0.4999997108843667	2.8204080116101387
40	-8.894135551250168	-0.7374028238512402	0.15866768242313092	2.500000024967859	2.2553141923424806e-16	-0.06831688705801815	-0.499999836188905	2.890918211900392
41	-8.7200743035982	-0.7095508069964626	0.15436005253414137	2.500000024967859	1.6841547378977876e-14	-0.10357197565279191	-0.49999986682004655	2.9614284121906453
42	-8.545894695046496	-0.6824488376618599	0.14781620753459115	2.5000000249678602	4.465540695762199e-14	-0.13882706640737363	-0.4999997950288827	3.0319386124808987
43	-8.371541466012257	-0.6564872448298873	0.13901969070828324	2.5000000249678633	-3.0961078019125653e-12	-0.17408215209994596	0.49999978021752645	3.102448812771152
44	-8.196966613905332	-0.6320603377623848	0.12794818968588537	2.500000024967645	1.970133812961884e-14	-0.13882706745172535	0.4999998604246193	3.1729590130614054
45	-8.022132024217466	-0.6095676939491831	0.11915167279254686	2.5000000249676466	1.9763481278545477e-14	-0.10357197714808651	0.4999998299181397	3.2434692133516587
46	-7.847106344353806	-0.588613835944134	0.112607827697843	2.500000024967648	7.962206780616493e-15	-0.06831688899546569	0.4999996981360066	3.313979413641912
47	-7.6719472941213	-0.5688057593419343	0.1083001976863097	2.5000000249676484	3.909921758542777e-15	-0.033061810134829506	0.49999912898641774	3.3844896139321654
48	-7.496704543382239	-0.5497523845637118	0.10621801496656258	2.500000024967649	-8.844204125703013e-16	0.0021932285949551205	0.4999883464264784	3.4549998142224188
49	-7.321422499945139	-0.531063938251971	0.1063560910710433	2.500000024967649	3.715341484670001e-16	0.037447507044278745	-0.4238549184121031	3.525510014512672
50	-7.146143038606773	-0.5123512898567116	0.10871472158944998	2.500000024967649	1.7467664162983184e-15	0.0075614118530323154	-0.13400045434602564	3.5960202148029254
51	-6.970908201002754	-0.49322527440850766	0.10919076340271779	2.500000024967649	-2.5542203392892575e-15	-0.00188698702189092	0.049393170239228144	3.666530415093179
52	-6.795682488036956	-0.4740158420207429	0.109071966981193	2.500000024967649	-2.0946401456617518e-15	0.0015957353046476437	-0.042636253181400484	3.737040615383432
53	-6.620454494295781	-0.4548272259561359	0.10917242743884202	2.500000024967649	-2.0440377474859e-15	-0.001410555446798861	0.0180576604300032	3.8075508156736855
54	-6.445228429135981	-0.4356210065039431	0.10908362510488598	2.500000024967649	2.730101053840429e-15	-0.00013730619310595054	0.0295023166956314	3.878061015963939
55	-6.270000659109973	-0.4164303476110146	0.10907498091976586	2.500000024967649	-3.012532999403712e-15	0.0019429080661295087	-0.05590236930451055	3.948571216254192
56	-6.0947727232029045	-0.3972412034200854	0.1091972978935489	2.500000024967649	-1.4338667315190092e-15	-0.0019987791902312474	0.02460680974078778	4.019081416544446
57	-5.9195471357647085	-0.37803062602191595	0.10907146350950417	2.500000024967649	-1.4365925274904675e-15	-0.0002637481069041407	0.04529501365504313	4.089591616834699
58	-5.74431913236263	-0.3588420981796453	0.10905485910552119	2.500000024967649	-1.749839234893452e-15	0.002930012378062717	-0.08375021514784978	4.160101817124953
59	-5.56909081037064	-0.3396564798965774	0.10923932013489776	2.500000024967649	2.8471894078545036e-15	-0.0029752320663639907	0.04507236709237092	4.230612017415206
60	-5.393866030358675	-0.320438539143446	0.10905201225095999	2.500000024967649	-1.5738966951308344e-15	0.00020282956487491235	0.011038131513279393	4.301122217705459
61	-5.21863765374873	-0.30125341971000347	0.10906478149523059	2.500000024967649	1.7428275626709201e-15	0.0009811304287064007	-0.009521554140664072	4.371632417995713
62	-5.043409522132547	-0.28206606274418106	0.10912654910766605	2.500000024967649	-5.5676594871171744e-15	0.00030976373917368446	-0.00417348716147559	4.442142618285966
63	-4.86818257600786	-0.2628678823916463	0.10914605045070937	2.500000024967649	-0.4558629813534958	1.549032350923932e-05	0.031184989893706418	4.512652818576219
64	-4.692956004306795	-0.24366628488197553	0.10914702565233811	2.4678570348475017	-1.0000000095411865	0.002214350206964009	0.15963389716932433	4.583163018866473
65	-4.5199823734531615	-0.22471139738928034	0.10928463911758267	2.397346833884446	-1.0000000097705943	0.013470168269486797	-0.49998263248292274	4.653673219156726
66	-4.351953381847607	-0.20627495488411657	0.11009788912460995	2.3268366329051635	-1.0000000098470627	-0.02178370728853228	-0.49999759098050445	4.724183419446979
67	-4.188881025788497	-0.18824813614645233	0.10882127306030365	2.2563264319204377	-1.0000000098852968	-0.057038637573211905	-0.4999985101454369	4.794693619737233
68	-4.030728069185618	-0.17096947111340083	0.10557685860257643	2.185816230932963	-1.0000000099082376	-0.092293632668395	-0.16762162622382965	4.865203820027486
69	-3.877463891633272	-0.154727930522706	0.10048220238214867	2.115306029943817	-1.0000000099235316	-0.10411266710641523	0.49999964871848324	4.935714020317739
70	-3.729065569143635	-0.13976615159239958	0.09491619410049847	2.0447958289535375	-1.0000000099344555	-0.06885759173021855	0.49999989547688073	5.006224220607993
71	-3.585535578439574	-0.1261017719545574	0.09136493106731548	1.9742856279624317	-1.000000009942648	-0.033602498955037675	0.4999999553009078	5.076734420898246
72	-3.4469089192071847	-0.11340079642809354	0.08969369046418788	1.9037754269706895	-1.0000000099490194	0.0016525980383475473	0.49999997808444857	5.1472446211884995
73	-3.3132129304795646	-0.10137684843949704	0.0897729182031631	1.8332652259784374	-1.000000009954116	0.036907696638205104	0.49999998894274406	5.217754821478753
74	-3.1844695627893302	-0.08978803177554946	0.09147756111951277	1.7627550249857626	-1.0000000099582855	0.07216279600368361	0.49999999487226005	5.288265021769006
75	-3.06069703792933	-0.0784339344774374	0.09468644503240073	1.6922448239927272	-1.0000000099617599	0.10741789578725393	0.4999999984227192	5.3587752220592595
76	-2.9419110023729806	-0.06715277304613498	0.09928168978781804	1.6217346229993763	-1.0000000099646995	0.14267299582116832	0.5000000006934636	5.429285422349513
77	-2.8281252664004874	-0.05581866887466424	0.10514815278304626	1.5512244220057436	-1.0000000099672188	0.17792809601519383	0.5000000022098058	5.499795622639766
78	-2.7193522090145064	-0.04433904484786218	0.11217289294535349	1.4807142210118538	-1.0000000099694022	0.2131831963161374	0.5000000032535635	5.5703058229300195
79	-2.6156029185437046	-0.03265212774384295	0.12024464742286749	1.4102040200177242	-1.0000000099713124	0.24843829669067705	0.5000000039809893	5.640816023220273
80	-2.516887130173827	-0.02072454098928579	0.12925331332062556	1.3396938190233676	-1.0000000099729982	0.283693397116508	0.5000000044862197	5.711326223510526
81	-2.423213014284997	-0.008548972116096456	0.13908942667055685	1.2691836180287914	-1.0000000099744966	0.3189484975779633	0.5000000048234566	5.78183642380078
82	-2.334586863207781	0.0038581003358403474	0.14964363044491535	1.1986734170339997	-1.0000000099758373	0.3542035980631974	0.5000000050240613	5.852346624091033
83	-2.251012718661274	0.016458634949190674	0.1608061227809943	1.1281632160389916	-1.0000000099770439	0.3894586985625764	0.50000000510484	5.922856824381286
84	-2.1724919775505134	0.02919522410239626	0.1724660756394551	1.057653015043763	-1.0000000099781359	0.4247137990676512	0.5000000050685575	5.99336702467154
85	-2.0990230098470635	0.04199327168916123	0.1845110128097573	0.9871428140483054	-1.0000000099791289	0.4599688995701677	0.5000000049067835	6.063877224961793
86	-2.030600818845253	0.05476316348759402	0.19682613442127636	0.9166326130526052	-1.0000000099800357	0.4952240000612773	0.5000000045930931	6.134387425252046
87	-1.9672167710848525	0.06740244112174683	0.20929357280423092	0.8461224120566432	-1.0000000099808672	0.5304791005302684	0.500000004072178	6.2048976255423
88	-1.9088584205818258	0.07979799027181855	0.22179156151531917	0.7756122110603924	-1.0000000099816326	0.5657342009625291	0.5000000032401659	6.275407825832553
89	-1.8555094496467712	0.09182825402134334	0.2341934953868203	0.705102010063816	-1.0000000099823394	0.600989301336124	0.5000000018799854	6.345918026122806
90	-1.8071497464383608	0.10336548314449244	0.24636685428322036	0.6345918090668637	-1.0000000099829942	0.6362444016138118	0.49999999947666796	6.41642822641306
91	-1.7637556374415289	0.11427803693070476	0.2581719564525802	0.5640816080694654	-1.0000000099836026	0.6714995017220405	0.4999999944734208	6.486938426703313
92	-1.7253002912178985	0.1244327510623008	0.2694604983774454	0.4935714070715213	-1.0000000099841695	0.7067546014774886	0.4999999790712608	6.557448626993566
93	-1.6917543079744466	0.1336973934191087	0.2800738260669344	0.4230612060728839	-1.0000000099846988	0.7420097001469264	0.11332129879249658	6.62795882728382
94	-1.6630865076308738	0.1419432348992041	0.2898408666495315	0.35255100507332415	-1.000000009985194	0.7500000076219371	-5.8595525565970355e-09	6.698469027574073
95	-1.63926492697741	0.14904777097820407	0.2981115941147274	0.28204080407246185	-1.000000009985658	0.7500000072087788	-1.084979131453424e-08	6.768979227864326
96	-1.6202553214646869	0.15488882109282065	0.3047281760817378	0.21153060306959698	-1.000000009986094	0.7500000064437579	-2.2857188722426468e-08	6.83948942815458
97	-1.6060274150406018	0.1593638460573454	0.3096906125497549	0.14102040206321464	-1.0000000099865038	0.7500000048320928	-7.165907071855823e-08	6.909999628444833
98	-1.596557065504592	0.16239422916178092	0.312998903518154	0.07051020104893367	-1.00000000998689	0.7499999997793975	-0.02791532069500204	6.980509828735086
99	-1.5918269293331022	0.16392507773003767	0.3146530489860271	0.0	0.0	0.7480316849260262	0.0	7.05102002902534
100	-1.5918269293331022	0.16392507773003767	0.31465304898607604	-9.998692175903203e-09	-1.0000000099725543	-0.7492713781815966	-0.014982715421298917	7.099651068187309
101	-1.5918269297963463	0.16392507757875766	0.314653049147945	-0.04863104971124498	-1.0000000099719781	-0.7500000032020261	-6.927636141493941e-08	7.148282107349278
102	-1.5940757968538266	0.16319314849210656	0.3154399082899638	-0.09726208939029059	-1.0000000099713777	-0.7500000065710075	-2.3032846318669497e-08	7.196913146511247
103	-1.5985723772616662	0.16172575184128543	0.31701362642198333	-0.14589312905829618	-1.0000000099707511	-0.7500000076911187	-1.1386900079675652e-08	7.245544185673216
104	-1.605313775386921	0.15951404514646708	0.3193742035438101	-0.19452416872079067	-1.0000000099700967	-0.7500000082448754	-6.722565117999685e-09	7.294175224835185
105	-1.6142953198226506	0.1565438930539213	0.3225216396553142	-0.24315520837997098	-1.0000000099694124	-0.7500000085718008	-4.380856875525394e-09	7.342806263997154
106	-1.6255105092062436	0.1527958853786204	0.3264559347563989	-0.291786248036931	-1.0000000099686965	-0.7500000087848465	-3.038756562293134e-09	7.391437303159123
107	-1.6389509373395006	0.14824536250740322	0.3311770888469807	-0.34041728769229346	-1.0000000099679465	-0.7500000089326244	-2.1914237812886483e-09	7.4400683423210925
108	-1.654606197750886	0.14286244857132097	0.33668510192698436	-0.38904832734644645	-1.0000000099671598	-0.7500000090391956	-1.6171147226531979e-09	7.488699381483062
109	-1.672463767884749	0.13661209290845971	0.3429799739963355	-0.43767936699964755	-1.0000000099663338	-0.7500000091178376	-1.2048670904662826e-09	7.537330420645031
110	-1.6925088731503355	0.1294541204498926	0.3500617050549576	-0.48631040665207614	-1.0000000099654653	-0.7500000091764314	-8.935902151331887e-10	7.585961459807
111	-1.714724331115867	0.12134329177109071	0.3579302951027691	-0.534941446303862	-1.0000000099645512	-0.7500000092198876	-6.452059364691945e-10	7.634592498968969
112	-1.7390903761906475	0.11222937365871878	0.3665857441396809	-0.5835724859551015	-1.0000000099635877	-0.7500000092512646	-4.399488116549914e-10	7.683223538130938
113	-1.7655844652018053	0.10205722114781945	0.3760280521655921	-0.632203525605868	-1.0000000099625705	-0.7500000092726599	-2.6860100722228866e-10	7.731854577292907
114	-1.7941810643426166	0.09076687208645684	0.3862572191803886	-0.6808345652562187	-1.0000000099614952	-0.7500000092857222	-1.0112825831303574e-10	7.780485616454876
115	-1.8248514180471012	0.07829365538339719	0.39727324518394647	-0.7294656049061979	-1.0000000099603565	-0.7500000092906401	5.586861140564486e-11	7.829116655616845
116	-1.8575633004313714	0.0645683141887412	0.40907613017610783	-0.7780966445558415	-1.0000000099591486	-0.7500000092879232	2.1989565775374505e-10	7.877747694778814
117	-1.8922807500367114	0.04951714534690766	0.42166587415668955	-0.8267276842051775	-1.000000009957865	-0.7500000092772293	3.840909121011656e-10	7.926378733940783
118	-1.9289637887131155	0.033062156545244886	0.43504247712546396	-0.8753587238542287	-1.0000000099564983	-0.7500000092585506	5.762329360829338e-10	7.9750097731027525
119	-1.9675681255955968	0.015121242658988614	0.44920593908216555	-0.9239897635030133	-1.0000000099550401	-0.7500000092305278	0.15760408645113846	8.023640812264722
120	-2.0080448472493977	-0.0043916171366311825	0.4641562600264511	-0.9726208031515456	-1.0000000099534823	-0.742335558730236	0.49999999314254095	8.07227185142669
121	-2.0503400951947817	-0.025566139854596843	0.47965331034052605	-1.021251842799837	-1.0000000099518156	-0.7180200394827327	0.5000000011269751	8.120902890588658
122	-2.0944002369146997	-0.04848491561570387	0.49514813062518515	-1.0698828824478959	-1.000000009950028	-0.6937045198469343	0.5000000037551866	8.169533929750626
123	-2.1401809216464027	-0.07320736447812669	0.5106005847626118	-1.118513922095729	-1.000000009948105	-0.6693890000833198	0.5000000050412012	8.218164968912594
