	x	y	theta	v	a	sigma	omega	t
0	7.96019900497512	-0.820895522388057	-0.292805411327151	-9.999090713700842e-09	-1.0000000099788622	0.74859025836572	0.03211120412311019	0.04390193017934373
1	7.960199004554057	-0.8208955222608175	-0.29280541147295974	-0.04390194066175574	-1.000000009978418	0.7500000022071074	8.816883264060688e-08	0.08780386035868747
2	7.958353657972387	-0.8203392045407488	-0.29344667587709755	-0.08780387130125546	-1.0000000099779554	0.7500000060778894	2.9187462726678413e-08	0.1317057905380312
3	7.954663679483299	-0.8192242027471948	-0.2947292045487669	-0.13170580193319928	-1.0000000099774722	0.7500000073592754	1.4435162021485064e-08	0.17560772071737493
4	7.949130861545124	-0.8175446027437967	-0.29665299748782264	-0.17560773256136297	-1.0000000099769675	0.7500000079930068	8.526752908798472e-09	0.21950965089671867
5	7.941758093020513	-0.8152909482738513	-0.29921805469417323	-0.2195096631872486	-1.00000000997644	0.7500000083673478	5.564403561326109e-09	0.2634115810760624
6	7.932549388721574	-0.812450250046195	-0.3024243761677469	-0.2634115938116055	-1.0000000099758877	0.7500000086116358	3.86277152057954e-09	0.3073135112554061
7	7.921509930260698	-0.8090059985028021	-0.3062719619084802	-0.3073135244348612	-1.000000009975309	0.750000008781219	2.7895786480793513e-09	0.35121544143474986
8	7.908646118149663	-0.8049381804498394	-0.31076081191631244	-0.3512154550572822	-1.000000009974702	0.7500000089036869	2.063487305892795e-09	0.3951173716140936
9	7.8939656350716385	-0.8002232997842199	-0.31589092619118225	-0.39511738567904575	-1.0000000099740645	0.750000008994278	1.5434455830982458e-09	0.43901930179343734
10	7.877477520231533	-0.7948344025975665	-0.3216623047330257	-0.43901931630027535	-1.000000009973394	0.7500000090620382	1.1520781130097038e-09	0.4829212319727811
11	7.859192254669197	-0.7887411069888133	-0.328074947541774	-0.4829212469210604	-1.0000000099726885	0.7500000091126167	8.437122766176922e-10	0.5268231621521248
12	7.839121857397297	-0.7819096379652988	-0.33512885461735153	-0.5268231775414675	-1.0000000099719444	0.7500000091496573	5.895989253872744e-10	0.5707250923314685
13	7.817279992200731	-0.774302867860014	-0.34282402595967354	-0.5707251081615472	-1.0000000099711588	0.7500000091755418	3.704714302321932e-10	0.6146270225108122
14	7.793682084907055	-0.7658803627394928	-0.3511604615686437	-0.6146270387813387	-1.000000009970328	0.7500000091918061	1.6701443110069257e-10	0.658528952690156
15	7.7683454509073195	-0.7565984353225048	-0.360138161444151	-0.658528969400873	-1.000000009969448	0.7500000091991385	-0.03249528464138401	0.7024308828694997
16	7.741289432673663	-0.7464102049740402	-0.369757125586061	-0.7024309000201745	-1.0000000099685145	0.7485734034816545	-0.49999999170553966	0.7463328130488435
17	7.712535546983696	-0.7352656653818401	-0.379988044808463	-0.7463328306392627	-1.000000009967524	0.7266224387561233	-0.5000000006187925	0.7902347432281872
18	7.682107285314049	-0.7231126523860587	-0.3903893586487015	-0.7902347612581537	-1.0000000099664708	0.7046714736392813	-0.5000000035704179	0.834136673407531
19	7.650024709318532	-0.7099103472032474	-0.4009248979052395	-0.8341366918768602	-1.0000000099653483	0.6827205083928555	-0.500000005030316	0.8780386035868747
20	7.616308465558486	-0.6956185752237065	-0.41156007212276474	-0.8780386224953921	-1.0000000099641497	0.6607695430823354	-0.5000000058924959	0.9219405337662184
21	7.5809796820136555	-0.6801980119649933	-0.42226169157068016	-0.9219405531137574	-1.0000000099628668	0.6388185777339624	-0.5000000064548187	0.9658424639455622
22	7.544059856392755	-0.6636103763322466	-0.43299780880617156	-0.9658424837319619	-1.0000000099614896	0.6168676123609009	-0.5000000068447796	1.0097443941249058
23	7.505570736465549	-0.645818612164572	-0.44373757704140027	-1.0097444143500096	-1.0000000099600075	0.5949166469707182	-0.5000000071259602	1.0536463243042495
24	7.465534192709161	-0.6267870589532356	-0.45445112296867113	-1.0536463449679032	-1.0000000099584079	0.5729656815681898	-0.5000000073335081	1.0975482544835933
25	7.4239720836195575	-0.6064816125494172	-0.4651094320533216	-1.097548275585644	-1.000000009956676	0.5510147161565487	-0.5000000074883252	1.141450184662937
26	7.380906114087077	-0.5848698766330094	-0.4756842445980656	-1.1414502062032315	-1.0000000099547943	0.52906375073811	-0.5000000076035068	1.1853521148422808
27	7.336357687274561	-0.561921305686238	-0.4861479611264499	-1.1853521368206639	-1.0000000099527422	0.5071127853146138	-0.5000000076875545	1.2292540450216245
28	7.290347750469586	-0.5376073402041482	-0.4964735558362093	-1.2292540674379382	-1.0000000099504958	0.4851618198874271	-0.5000000077460942	1.2731559752009682
29	7.2428966354098945	-0.5119015348760856	-0.5066344970430235	-1.2731559980550498	-1.000000009948025	0.46321085445767013	-0.5000000077828444	1.317057905380312
30	7.1940238936046175	-0.48477968048642417	-0.5166046736773979	-1.3170579286719921	-1.0000000099452953	0.44125988902629937	-0.5000000078001798	1.3609598355596557
31	7.143748127194102	-0.4562199203074866	-0.526358327016852	-1.3609598592887568	-1.0000000099422626	0.4193089235941675	-0.5000000077994612	1.4048617657389995
32	7.092086815909361	-0.4262028617916222	-0.5358699869361604	-1.4048617899053335	-1.0000000099388735	0.3973579581620671	-0.5000000077812187	1.4487636959183432
33	7.039056140708952	-0.3947116844117658	-0.5451144120431536	-1.4487637205217088	-1.0000000099350614	0.3754069927307677	-0.5000000077452338	1.492665626097687
34	6.984670804687612	-0.3617322445496278	-0.5540665331390944	-1.4926656511378664	-1.0000000099307411	0.3534560273010484	-0.500000007690539	1.5365675562770307
35	6.928943851868017	-0.32725317838729157	-0.5627013995029649	-1.5365675817537858	-1.0000000099258042	0.33150506187373074	-0.5000000076153376	1.5804694864563744
36	6.871886484505573	-0.2912660038208334	-0.57099412754983	-1.5804695123694419	-1.0000000099201074	0.3095540964497151	-0.5000000075168296	1.6243714166357182
37	6.813507879557219	-0.25376522248317385	-0.578919851456162	-1.6243714429848026	-1.000000009913461	0.2876031310300248	-0.500000007390908	1.668273346815062
38	6.753815004989899	-0.21474842303732158	-0.5864536753807759	-1.668273373599828	-1.0000000099056052	0.2656521656158633	-0.5000000072316577	1.7121752769944056
39	6.692812436633791	-0.17421638698017614	-0.5935706269397586	-1.712175304214466	-1.0000000098961772	0.2437012002086941	-0.5000000070305296	1.7560772071737494
40	6.630502176320928	-0.13217319828083357	-0.6002456116182461	-1.7560772348286489	-1.0000000098846518	0.22175023481035575	-0.5000000067749434	1.7999791373530931
41	6.566883472092862	-0.08862635826566312	-0.6064533678217418	-1.7999791654422852	-1.000000009870241	0.19979926942323914	-0.5000000064458289	1.8438810675324369
42	6.5019526413131645	-0.043586907255067336	-0.6121684222853873	-1.8438810960552492	-1.0000000098517061	0.17784830405057236	-0.5000000060130443	1.8877829977117806
43	6.4357028975834885	0.0029304454464163703	-0.6173650455715909	-1.8877830266673608	-1.0000000098269797	0.1558973386969068	-0.5000000054262044	1.9316849278911243
44	6.368124182437686	0.05090718150441754	-0.6220172073950309	-1.9316849572783488	-1.0000000097923347	0.13394637336900586	-0.5000000045944893	1.975586858070468
45	6.299203002879188	0.10032082164703297	-0.6260985315195126	-1.975586887887778	-1.0000000097403001	0.11199540807762007	-0.5000000033361623	2.0194887882498116
46	6.228922275934958	0.1511447599813948	-0.6295822499736817	-2.019488818494886	-1.000000009653373	0.09004444284147858	-0.5000000012271071	2.0633907184291553
47	6.157261181527589	0.20334808251076497	-0.6324411563323018	-2.063390749098141	-1.0000000094786172	0.06809347769793006	-0.49999999699496867	2.107292648608499
48	6.084195025118456	0.25689536771636623	-0.6346475578068621	-2.107292679693687	-1.0000000089450938	0.04614251274018198	-0.4999999842780613	2.151194578787843
49	6.009695111752776	0.3117464669549121	-0.6361732258841314	-2.1511946102657733	-0.9999998561962256	0.024191548340732106	0.030327805129580613	2.1950965089671866
50	5.933728633345886	0.3678562623093705	-0.6369893452481697	-2.1950965341318533	1.0000000089482879	0.025522997524023698	0.4999999848427767	2.2389984391465303
51	5.856258571527399	0.4251743992457285	-0.6378679735801439	-2.1511946035596257	1.0000000094812558	0.0474739619482657	0.4999999973060832	2.282900369325874
52	5.780387294352196	0.4814128577990834	-0.6394704335882084	-2.1072926729639634	1.000000009654709	0.06942492691967238	0.5000000014537076	2.3268022995052178
53	5.706152786673329	0.5366226213756524	-0.6417679805546644	-2.06339074236065	1.0000000097410835	0.09137589207316921	0.5000000035205602	2.3707042296845615
54	5.633589227353692	0.5908490427085256	-0.6447324690757794	-2.0194888117535075	1.0000000097928456	0.11332685731740627	0.500000004753684	2.4146061598639053
55	5.5627272186992744	0.6441320138320408	-0.6483363022874437	-1.9755868811440553	1.0000000098273385	0.13527782261578122	0.5000000055687727	2.458508090043249
56	5.493593986773737	0.6965061437035533	-0.6525523828536078	-1.9316849505330511	1.0000000098519721	0.15722878794994147	0.500000006143964	2.5024100202225927
57	5.4262135556100555	0.7480009421772644	-0.6573540654557419	-1.8877830199209271	1.0000000098704465	0.17917975330935496	0.5000000065682862	2.5463119504019365
58	5.360606898156445	0.79864100924088	-0.6627151105250476	-1.8438810893079534	1.0000000098848154	0.20113071868739824	0.500000006891138	2.59021388058128
59	5.296792066623844	0.8484462285969844	-0.6686096389647552	-1.7999791586943095	1.0000000098963113	0.22308168407961645	0.5000000071420773	2.634115810760624
60	5.234784304741078	0.8974319648122016	-0.6750120876132639	-1.7560772280801202	1.0000000099057176	0.2450326494828525	0.5000000073398125	2.6780177409399677
61	5.1745961442715265	0.9456092633725576	-0.6818971651997237	-1.7121752974654767	1.0000000099135569	0.26698361489477046	0.5000000074966932	2.7219196711193114
62	5.116237488001465	0.9929850530765207	-0.6892398085417459	-1.6682733668504466	1.000000009920191	0.28893458031357666	0.5000000076211206	2.765821601298655
63	5.059715681275033	1.0395623502711278	-0.6970151387301542	-1.6243714362350816	1.000000009925878	0.3108855457378462	0.5000000077189195	2.809723531477999
64	5.00503557402365	1.085340464494201	-0.7051984170378481	-1.5804695056194216	1.0000000099308075	0.33283651116641005	0.5000000077941472	2.8536254616573427
65	4.952199575118328	1.1303152051294045	-0.7137650002787345	-1.5365675750034986	1.0000000099351214	0.3547874765982771	0.500000007849588	2.8975273918366864
66	4.901207700761307	1.1744790887129883	-0.7226902953279569	-1.4926656443873376	1.0000000099389286	0.3767384420325785	0.500000007887052	2.94142932201603
67	4.852057618528568	1.2178215465535025	-0.7319497124959464	-1.4487637137709592	1.0000000099423136	0.398689407468525	0.5000000079075498	2.985331252195374
68	4.804744688576478	1.2603291323402983	-0.7415186174256373	-1.4048617831543793	1.000000009945343	0.42064037290537154	0.5000000079113752	3.0292331823747176
69	4.7592620034341655	1.3019857294248682	-0.751372281153932	-1.3609598525376116	1.0000000099480704	0.442591338342386	0.5000000078981117	3.0731351125540614
70	4.715600427717697	1.3427727574624722	-0.7614858279444453	-1.3170579219206662	1.0000000099505386	0.46454230377881817	0.5000000078665614	3.117037042733405
71	4.67374863902278	1.3826693781013466	-0.7718341804577804	-1.2731559913035517	1.0000000099527835	0.4864932692138649	0.500000007814579	3.160938972912749
72	4.633693171179428	1.421652699404363	-0.7823920017770314	-1.2292540606862743	1.0000000099548338	0.508444234646629	0.5000000077387698	3.2048409030920926
73	4.5954184609848046	1.4596979786844027	-0.7931336337484985	-1.1853521300688388	1.0000000099567141	0.5303952000760646	0.5000000076339713	3.2487428332714363
74	4.558906899469497	1.4967788234310404	-0.8040330310291464	-1.141450199451248	1.0000000099584452	0.5523461655008984	0.5000000074923607	3.29264476345078
75	4.524138888697987	1.532867390003452	-0.8150636901511105	-1.0975482688335039	1.0000000099600437	0.5742971309195143	0.5000000073018694	3.336546693630124
76	4.4910929050564246	1.5679345797637796	-0.8261985728171628	-1.0536463382156067	1.0000000099615247	0.5962480963297663	0.5000000070432196	3.3804486238094675
77	4.459745569940576	1.60195023232761	-0.8374100225264407	-1.009744407597555	1.0000000099629012	0.6181990617286618	0.5000000066839793	3.4243505539888113
78	4.430071728724634	1.6348833156147884	-0.8486696734932696	-0.9658424769793463	1.0000000099641835	0.6401500271117846	0.5000000061654675	3.468252484168155
79	4.402044538868361	1.666702112395744	-0.8599483506589659	-0.9219405463609767	1.0000000099653812	0.6621009924721422	0.5000000053700033	3.5121544143474988
80	4.3756355680068815	1.6973744030470863	-0.871215959401408	-0.8780386157424398	1.0000000099665027	0.6840519577975757	0.5000000040226427	3.5560563445268425
81	4.3508149028657	1.7268676442569872	-0.8824413633128061	-0.834136685123728	1.0000000099675554	0.7060029230638556	0.5000000012981417	3.5999582747061862
82	4.327551269854914	1.7551491434574606	-0.893592248133535	-0.7902347545048312	1.000000009968545	0.7279538882105228	0.4999999930702757	3.64386020488553
83	4.305812168223094	1.7821862288091899	-0.9046349695877085	-0.7463328238857364	1.000000009969478	0.7499048529959685	0.002167473378050181	3.6877621350648737
84	4.285564016695413	1.8079464146274957	-0.9155343824484072	-0.7024308932664276	1.0000000099703568	0.7500000092608773	-6.107756730598548e-11	3.7316640652442175
85	4.266772314585398	1.832397562218437	-0.9257946107592127	-0.6585289626468851	1.0000000099711863	0.7500000092581959	-2.354210211122717e-10	3.775565995423561
86	4.249391211728968	1.8555000600626446	-0.9354135748036164	-0.6146270320270842	1.0000000099719708	0.7500000092478605	-4.17772887617343e-10	3.819467925602905
87	4.233377003625384	1.8772174337948064	-0.9443912745814836	-0.570725101406994	1.0000000099727133	0.7500000092295195	-6.226038400413131e-10	3.8633698557822487
88	4.2186883098402825	1.8975162534938084	-0.9527277100927026	-0.5268231707865748	1.0000000099734176	0.7500000092021859	-8.630159208531117e-10	3.9072717859615924
89	4.205286187794162	1.9163660051537585	-0.9604228813371766	-0.48292124016577587	1.0000000099740862	0.7500000091642978	-1.1575130373798264e-09	3.951173716140936
90	4.193134236065901	1.9337389689852105	-0.9674767883148206	-0.4390193095445301	1.000000009974722	0.7500000091134807	-1.5339207701386422e-09	3.99507564632028
91	4.182198687741013	1.9496101050334318	-0.973889431025559	-0.3951173789227477	1.000000009975327	0.7500000090461386	-2.036638999337556e-09	4.038977576499623
92	4.172448494305412	1.963956946551549	-0.979660809469323	-0.35121544830030427	1.0000000099759039	0.7500000089567262	-2.7410533609109345e-09	4.0828795066789665
93	4.163855400553914	1.9767595015201669	-0.9847909236460485	-0.3073135176770215	1.000000009976454	0.7500000088363887	-3.784734411512232e-09	4.12678143685831
94	4.1563940109487785	1.9880001626615	-0.9892797735556745	-0.2634115870526311	1.0000000099769797	0.7500000086702315	-5.442227127350117e-09	4.170683367037653
95	4.150041847827581	1.9976636262549383	-0.9931273591981402	-0.21950965642670292	1.0000000099774822	0.7500000084313073	-8.330690813177107e-09	4.214585297216996
96	4.144779401821969	2.0057368200221513	-0.9963336805733821	-0.17560772579848277	1.0000000099779631	0.7500000080655739	-1.4095314931014263e-08	4.25848722739634
97	4.140590174809366	2.0122088403130585	-0.9988987376813284	-0.13170579516645967	1.0000000099784239	0.7500000074467624	-2.8493646349760868e-08	4.302389157575683
98	4.1374607156790315	2.017070898789078	-1.0008225305218872	-0.08780386452684376	1.0000000099788657	0.7500000061958363	-8.60695958997046e-08	4.346291087755026
99	4.135380649151937	2.020316278766728	-1.002105059094913	-0.04390193386430816	1.0000000099792896	0.7500000024172149	-0.03215005406061728	4.39019301793437
100	4.134342697851227	2.021940301352486	-1.002746323400037	0.0	0.0	0.7485885529885838	0.0	4.434094948113713
101	4.134342697851227	2.021940301352486	-1.0027463234002074	0.00010000997025854938	0.8444141167287883	0.4040835340633189	0.03654894724704878	4.524567951369539
102	4.13434756568746	2.021932674155324	-1.0027449415618277	0.07649669110232678	0.7774664041241821	0.40739022708659794	0.06597852168600134	4.615040954625365
103	4.1380709361684795	2.016098707516064	-1.0016783047349034	0.14683641161394817	0.7163695137558324	0.4133595020939097	0.08909933851014738	4.705513957881191
104	4.145229935647826	2.004907960978099	-0.9995971985254085	0.2116485129643529	0.6604157610520002	0.4214205868370296	0.10661670094234849	4.795986961137017
105	4.155582391165368	1.9887992421912253	-0.9965315443860898	0.27139831026420796	0.6089889648434499	0.43106651996851125	0.1191490663347654	4.886459964392843
106	4.168920677082594	1.9681837174872208	-0.9924984040977168	0.32649537086325003	0.5615540594361299	0.4418462938349441	0.12724332723936033	4.976932967648669
107	4.185066686493052	1.943447915686169	-0.9875080194374474	0.3773008531109358	0.51764811940366	0.45335837979455185	0.13138787429946852	5.067405970904495
108	4.203867570305016	1.914956479278926	-0.981568388395544	0.4241340331031137	0.4768725250603702	0.46524543537382246	0.13202394382712768	5.1578789741603215
109	4.225192009797727	1.8830545854147631	-0.9746887304232701	0.4672781226155128	0.4388860401805515	0.47719003807353993	0.12955547271996812	5.248351977416148
110	4.248926872141277	1.848070001022593	-0.9668820870795647	0.5069854607577027	0.4033986054809882	0.48891131077874234	0.12435751753503957	5.338824980671974
111	4.274974156090137	1.8103147624707314	-0.9581672276851642	0.543482144104778	0.3701656793569802	0.5001623088675751	0.11678320466288619	5.4292979839278
112	4.303248175368113	1.770086487006657	-0.9485699743755394	0.5769721448184353	0.3389829857303726	0.5107280361232648	0.10716914388407522	5.519770987183626
113	4.33367295560593	1.7276693348939494	-0.9381240225718248	0.6076409535900871	0.3096815597267522	0.5204239504268114	0.09583924664631586	5.610243990439452
114	4.366179840443929	1.6833346501085622	-0.9268713083540142	0.635658774351513	0.2821230155718632	0.5290948149006781	0.0831069352400112	5.700716993695278
115	4.400705315580836	1.637341314968427	-0.9148619613067864	0.6611832908578876	0.2561949964312853	0.536613748923228	0.06927580147663631	5.791189996951104
116	4.437189067293471	1.589935860651012	-0.902153878097268	0.6843620216041396	0.23180680058299452	0.5428813387357723	0.05463886287008527	5.88166300020693
117	4.475572294967122	1.5413523811560559	-0.8888119561452128	0.7053342790280056	0.20888520923896967	0.5478246807541107	0.039476657196149546	5.972136003462756
118	4.515796295989756	1.4918123025081749	-0.8749070357361239	0.7242327512435749	0.18737056530617935	0.5513962524891457	0.024054497490409076	6.062609006718582
119	4.557801336547659	1.4415240613322449	-0.8605146100024246	0.7411847290085647	0.16721316673302378	0.5535725351189115	0.008619264646528702	6.153082009974408
120	4.6015258141606274	1.3906827468726777	-0.845713372512591	0.7563130063868165	0.14837004133888235	0.5543523458773385	-0.006603866864780188	6.243555013230234
121	4.646905708167064	1.339469757752175	-0.8305836792424107	0.7697364896199343	0.1308021622717308	0.5537548742089791	-0.021414397464966893	6.3340280164860605
122	4.693874303933543	1.2880525192568506	-0.8152060036394779	0.7815705540730118	0.11447214621872513	0.5518174493574085	-0.03563885354826664	6.424501019741887
123	4.742362166491202	1.2365842990095268	-0.7996594594991966	0.791927192930558	0.09934245325350506	0.5485930952443013	-0.049132299412917683	6.514974022997713
124	4.792297330668875	1.185204149175154	-0.7840204566897457	0.8009150030272023	0.0853740814809136	0.5441479485595493	-0.06177889281643412	6.605447026253539
125	4.843605668439538	1.134036992669645	-0.7683615405800688	0.8086390525789864	0.07252572513819096	0.538558626588626	-0.07349147098349641	6.695920029509365
126	4.896211390622621	1.0831938601370352	-0.7527504491547246	0.8152006727455433	0.06075334455237069	0.5319096324950601	-0.08421024418896048	6.786393032765191
