	x	y	theta	v	a	sigma	omega	t
0	-16.0199004975124	-13.5074626865672	0.200398553825878	0.00010000999910156744	1.000000009984358	0.749974015973836	0.000441603396980673	0.058810313650709496
1	-16.01989473359916	-13.507461515772231	0.200400510615327	0.05891032431387577	1.0000000099839752	0.7499999868081216	1.9286727868479954e-07	0.11762062730141899
2	-16.016499534922453	-13.506771859123129	0.2015532063760999	0.11772063857698653	1.000000009983573	0.7499999981507067	6.20503184285186e-08	0.1764309409521285
3	-16.009716494569027	-13.505385896930875	0.2038566410576736	0.17653095282977857	1.0000000099831503	0.7500000017999054	-0.21796269194957432	0.23524125460283798
4	-15.999549629653979	-13.503284118103315	0.20731081465890425	0.23534126707813408	1.0000000099827056	0.7371815475221981	-0.49999989738794137	0.2940515682535475
5	-15.986005489058453	-13.500435342525588	0.21179876527726194	0.2941515813240113	1.000000009982237	0.7077763967314904	-0.4999999567631845	0.352861881904257
6	-15.969092902765814	-13.496798736484848	0.21708532062064448	0.3529618955682994	1.0000000099817428	0.6783712424489058	-0.4999999758194169	0.4116721955549665
7	-15.948822301566015	-13.492327832890224	0.2230603870120628	0.41177220981147555	1.0000000099812205	0.6489660870456179	-0.49999998492262554	0.47048250920567597
8	-15.925205811053276	-13.486970784945566	0.22962109333719075	0.4705825240538253	1.0000000099806678	0.6195609311069671	-0.4999999901029062	0.5292928228563855
9	-15.89825710181746	-13.480671693445817	0.2366707964418523	0.5293928382955324	1.0000000099800819	0.5901557748636621	-0.49999999334876927	0.588103136507095
10	-15.867991229143906	-13.473371837803473	0.2441182281642435	0.5882031525367217	1.0000000099794597	0.5607506184294666	-0.4999999954996341	0.6469134501578045
11	-15.834424453652254	-13.465010824492339	0.25187675870636184	0.6470134667774818	1.0000000099787973	0.5313454618687778	-0.4999999969664337	0.7057237638085141
12	-15.79757403688884	-13.455527664376875	0.2598637560097509	0.7058237810178771	1.000000009978091	0.5019403052218259	-0.49999999797050804	0.7645340774592236
13	-15.757458007938181	-13.444861788647595	0.268000024659112	0.7646340952579559	1.0000000099773363	0.4725351485158239	-0.49999999863832084	0.8233443911099332
14	-15.714094898770995	-13.432954011729182	0.27620931086244077	0.8234444094977545	1.0000000099765276	0.44312999177054746	-0.49999999904383235	0.8821547047606427
15	-15.667503447397872	-13.41974744850542	0.2844178624432398	0.8822547237373012	1.0000000099756592	0.41372483500142265	-0.4999999992289947	0.9409650184113523
16	-15.617702269024864	-13.405188392462453	0.2925540346741433	0.9410650379766173	1.000000009974724	0.38431967822140833	-0.4999999992139579	0.9997753320620618
17	-15.564709496366508	-13.389227160847746	0.3005479342909451	0.9998753522157198	1.000000009973714	0.3549145214422783	-0.4999999990017879	1.0585856457127714
18	-15.508542391108403	-13.371818912642032	0.30833109523398916	1.0586856664546211	1.0000000099726198	0.32550936467562624	-0.4999999985796954	1.1173959593634808
19	-15.44921692926161	-13.35292444501708	0.31583618063296953	1.1174959806933304	1.0000000099714308	0.29610420793379755	-0.4999999979173825	1.1762062730141902
20	-15.386747363844584	-13.332510973979947	0.3229967063295047	1.176306294931854	1.0000000099701332	0.26669905123091986	-0.4999999969621489	1.2350165866648997
21	-15.321145768992011	-13.310552905064501	0.3297467818564377	1.2351166091701955	1.0000000099687123	0.23729389458421993	-0.49999999562933317	1.293826900315609
22	-15.252421570247236	-13.287032600206421	0.336020865292259	1.2939269234083564	1.0000000099671489	0.2078887380159035	-0.4999999937849252	1.3526372139663185
23	-15.180581066469701	-13.261941147313847	0.34175352880548626	1.352737237646336	1.000000009965421	0.1784835815560575	-0.4999999912137441	1.411447527617028
24	-15.105626949503801	-13.235279139509023	0.3468792320143482	1.4115475518841307	1.000000009963501	0.1490784252474237	-0.4999999875589614	1.4702578412677374
25	-15.027557828535732	-13.207057471554098	0.35133210052485997	1.4703578661217351	1.0000000099613549	0.11967326915372908	-0.49999998220048214	1.5290681549184468
26	-14.946367766936513	-13.17729816157434	0.3550457071853518	1.5291681803591408	1.0000000099589403	0.09026811337516855	-0.4999999739915489	1.5878784685691563
27	-14.86204584038161	-13.146035206841825	0.3579528537151999	1.5879784945963364	1.0000000099562036	0.060862958079378186	-0.49999996062974067	1.6466887822198657
28	-14.774575726183794	-13.113315483067787	0.3599853504353424	1.6467888088333065	1.0000000099530757	0.03145780356940017	-0.49999993695458056	1.7054990958705751
29	-14.68393533511278	-13.079199697356175	0.36107379185200783	1.7055991230700314	1.0000000099494666	0.0020526504517659264	-0.49999988942223333	1.7643094095212846
30	-14.590096498546032	-13.043763405674724	0.3611473258260419	1.7644094373064856	1.0000000099452557	-0.02735249987047592	-0.49999977241405247	1.823119723171994
31	-14.493024725648436	-13.007098106378708	0.36013341400372506	1.8232197515426365	1.000000009940279	-0.05675764331142984	-0.4999993338674548	1.8819300368227034
32	-14.392679047470825	-12.969312421944714	0.3579575811184022	1.8820300657784412	1.0000000099343072	-0.08616276096132071	-0.24886270628868842	1.9407403504734129
33	-14.289011967454096	-12.930533381594257	0.3545431509813425	1.9408403800138434	1.000000009927008	-0.10079845477412366	0.49999789897744107	1.9995506641241223
34	-14.181969540913803	-12.890907817822931	0.3504201492895825	1.9996506942487664	1.0000000099178843	-0.07139342151056458	0.4999976271077879	2.0583609777748317
35	-14.071516182676442	-12.850536596222076	0.3474165185086839	2.0584610084831048	1.0000000099061535	-0.04198840423574506	0.4999936283964545	2.1171712914255414
36	-13.957690045273536	-12.809319750387505	0.34560007118572017	2.117271322716706	1.0000000098905124	-0.012583622126393279	0.49971963754221344	2.175981605076251
37	-13.840535076496202	-12.767138073724595	0.3450404417217063	2.176081636949341	1.000000009868615	0.016805046494883173	-0.21961801708167442	2.2347919187269607
38	-13.720101713801958	-12.723852130443795	0.34580860094976246	2.234891951180644	1.0000000098357686	0.003889242026963996	0.018707822532960598	2.2936022323776704
39	-13.596447730559401	-12.67930135148779	0.34599116663665974	2.293702265409971	1.000000009781025	0.0049894549378596735	-0.14685392233517502	2.35241254602838
40	-13.46954819033078	-12.633555067811907	0.3462315415608581	2.3525125796360347	1.0000000096715376	-0.00364707029552563	0.05982168829265851	2.4112228596790897
41	-13.339406239565324	-12.586604569427024	0.34605133381237824	2.4113228938556164	1.000000009343076	-0.00012893804391668777	-0.004529017157382678	2.4700331733297993
42	-13.206002208167192	-12.53850439814455	0.3460448035308388	2.470133208055838	0.50784998500289	-0.00039529096346994176	0.006784284270556575	2.528843486980509
43	-13.069344233092414	-12.489231993025168	0.3460242950851761	2.500000024961366	2.927044468205894e-15	3.6949223800194727e-06	0.03614587643813442	2.5876538006312186
44	-12.931032879612925	-12.439366663092645	0.3460244891026236	2.500000024961366	1.1207530271902788e-15	0.002129445252891108	-0.03651020778101605	2.6464641142819283
45	-12.792721535809608	-12.389501306325823	0.3461363047529874	2.500000024961366	-2.6393696206037446e-15	-1.773151816977845e-05	-0.04765469251991918	2.705274427932638
46	-12.6544157685945	-12.33962048449656	0.34613537368499214	2.500000024961366	2.7895576337034558e-15	-0.002820318932201785	0.04676379131391001	2.7640847415833476
47	-12.516109954938152	-12.289739791439803	0.34598728058684486	2.500000024961366	-3.56843185077541e-15	-7.012569752644121e-05	0.0499974326600611	2.8228950552340573
48	-12.377796755811492	-12.239879581066171	0.34598359834192133	2.500000024961366	-2.8288900916472837e-15	0.0028702389989501862	-0.04912970064186929	2.881705368884767
49	-12.239483373088042	-12.190019879995873	0.3461343127243686	2.500000024961366	1.527367523391185e-16	-1.909410537182763e-05	-0.05062587054443511	2.9405156825354766
50	-12.101177506510538	-12.140139333676244	0.3461333101079962	2.500000024961366	3.439175980698982e-15	-0.0029964174309383084	0.059456073542396626	2.9993259961861862
51	-11.962871589922253	-12.090258926024438	0.34597597013958775	2.500000024961366	-3.722806856141228e-15	0.0005002129025389538	0.034262650479759876	3.058136309836896
52	-11.824557826862533	-12.040400280037913	0.3460022359256571	2.500000024961366	8.23904962372435e-16	0.002515210123764754	-0.03906487014067242	3.1169466234876055
53	-11.686245373428871	-11.990538001149533	0.3461343078898221	2.500000024961366	3.488043623434869e-15	0.0002177928580598882	-0.0660717829302637	3.175756937138315
54	-11.547939506609607	-11.940657455498329	0.346145744020736	2.500000024961366	-1.225660247011265e-15	-0.003667909419539268	0.0966357192219641	3.234567250789025
55	-11.40963421024	-11.890775328166448	0.3459531441513867	2.500000024961366	2.3752583409576276e-15	0.0020152675377787216	-0.022359708229618136	3.2933775644397345
56	-11.271319309142925	-11.840919839341046	0.3460589643977765	2.500000024961366	-5.9515938368305946e-15	0.000700286083656111	-0.016739390873861264	3.352187878090444
57	-11.133009684544854	-11.791049714279515	0.3460957358717894	2.5000000249613654	-0.5095505370483656	-0.000284162743961512	-0.01654952627763243	3.410998191741154
58	-10.994701893837979	-11.741174503402817	0.34608081471044905	2.4700331980566634	-1.0000000093430785	-0.0012574455751205842	0.07166017864051791	3.4698085053918635
59	-10.858051226104136	-11.691899172225973	0.3460155786571321	2.4112228838564422	-1.0000000096715391	0.002956912007000761	0.16636407613893112	3.528618819042573
60	-10.724651007987228	-11.643805765620625	0.3461653306035891	2.3524125696368605	-1.0000000097810258	0.012740835504931295	-0.2599184434372264	3.587429132693283
61	-10.594511481602929	-11.596865879757427	0.34679488077960763	2.293602255410797	-1.000000009835769	-0.002545049677210119	-0.4999922407269683	3.6462394463439924
62	-10.46765428076055	-11.551019618988326	0.34667227504813714	2.23479194118147	-1.000000009868615	-0.031949750177284186	-0.499997236074063	3.705049759994702
63	-10.344044352700486	-11.506364058316942	0.3451720796233657	2.175981626950167	-1.0000000098905124	-0.061354744455287685	-0.4999977495006306	3.7638600736454118
64	-10.223622223826368	-11.463064251912893	0.34236442119019384	2.117171312717532	-1.0000000099061537	-0.09075976892806867	-0.2578770010462258	3.8226703872961214
65	-10.10633692368896	-11.421263842420927	0.3383173614032488	2.05836099848393	-1.0000000099178845	-0.10592559624290196	0.4999993320638089	3.881480700946831
66	-9.992146013188055	-11.381086362568217	0.3337206579529429	1.999550684249592	-1.0000000099270085	-0.07652047869908407	0.49999978804507367	3.9402910145975407
67	-9.881039465423644	-11.34256712581511	0.33050066906354264	1.9407403700146688	-1.0000000099343074	-0.04711533433886488	0.49999990280527357	3.9991013282482504
68	-9.773080933031373	-11.305528240448485	0.3285786986192827	1.8819300557792669	-1.0000000099402788	-0.017710183229562214	0.49999994738640474	4.05791164189896
69	-9.668325034273447	-11.269813017199214	0.3278785868057494	1.8231197415434621	-1.0000000099452546	0.011694970501570949	0.4999999689047806	4.116721955549669
70	-9.566818558969938	-11.23528495209096	0.32832643372316894	1.764309427307311	-1.0000000099494648	0.04110012549820678	0.49999998076622987	4.175532269200378
71	-9.468601460417498	-11.201826705955781	0.32985033910594996	1.7054991130708568	-1.000000009953073	0.07050528119241843	0.4999999879238189	4.234342582851087
72	-9.373707663001321	-11.16933908785614	0.33238015590537934	1.646688798834132	-1.0000000099562	0.09991043730757046	0.49999999253521377	4.293152896501796
73	-9.282165712261364	-11.137740047215184	0.33584725525919384	1.5878784845971623	-1.0000000099589361	0.1293155936939204	0.4999999956542388	4.351963210152506
74	-9.193999291507911	-11.106963677634067	0.3401843004771001	1.5290681703599673	-1.00000000996135	0.15872075026370153	0.4999999978416839	4.410773523803215
75	-9.109227626691055	-11.076959234011177	0.34532502777235985	1.4702578561225619	-1.0000000099634956	0.18812590696212736	0.4999999994162911	4.469583837453924
76	-9.027865799091856	-11.047690163577712	0.35120403153458774	1.4114475418849581	-1.0000000099654152	0.21753106375315667	0.5000000005688372	4.528394151104633
77	-8.949924983496874	-11.019133150750736	0.35775655196309597	1.3526372276471637	-1.0000000099671429	0.2469362206119679	0.5000000014181111	4.5872044647553425
78	-8.875412627819385	-10.99127717521582	0.364918262861713	1.2938269134091849	-1.0000000099687059	0.27634137752072546	0.5000000020401368	4.646014778406052
79	-8.804332588617486	-10.964122582334012	0.37262505733276385	1.2350165991710247	-1.0000000099701267	0.3057465344660648	0.500000002484169	4.704825092056761
80	-8.736685235611533	-10.937680164777595	0.3808128289963167	1.1762062849326842	-1.0000000099714241	0.33515169143751805	0.5000000027817307	4.76363540570747
81	-8.672467537101932	-10.911970254198202	0.38941724619566565	1.1173959706941616	-1.0000000099726136	0.3645568484264711	0.500000002951735	4.822445719358179
82	-8.611673137117224	-10.887021821686112	0.39837351642409197	1.0585856564554537	-1.0000000099737079	0.3939620054254223	0.5000000030032034	4.8812560330088886
83	-8.554292434166967	-10.862871585761866	0.40761613791149565	0.9997753422165534	-1.0000000099747182	0.4233671624274004	0.5000000029362892	4.940066346659598
84	-8.500312670622172	-10.83956312662418	0.41707863492969893	0.9409650279774522	-1.0000000099756539	0.4527723194254432	0.5000000027418068	4.998876660310307
85	-8.449718040987625	-10.817146005336161	0.4266932728953916	0.8821547137381373	-1.0000000099765227	0.48217747641204833	0.5000000023979844	5.057686973961016
86	-8.402489826657009	-10.795674886540786	0.43639074874816586	0.823344399498592	-1.0000000099773318	0.511582633378433	0.5000000018675416	5.116497287611725
87	-8.358606564146845	-10.775208663131359	0.4460998513298183	0.7645340852587948	-1.0000000099780872	0.540987790313622	0.5000000010870972	5.175307601262435
88	-8.318044253283695	-10.75580958103632	0.45574708555369026	0.7057237710187176	-1.0000000099787942	0.5703929472029124	0.499999999942466	5.234117914913144
89	-8.280776611366859	-10.737542361881033	0.4652562529818696	0.6469134567783239	-1.0000000099794573	0.5997981040248863	0.49999999822459773	5.292928228563853
90	-8.246775378943141	-10.720473320727256	0.47454797996159154	0.5881031425375653	-1.0000000099800803	0.6292032607458315	0.4999999955093058	5.351738542214562
91	-8.216010682508092	-10.704669475323536	0.48353918262857654	0.5292928282963774	-1.000000009980667	0.6586084173070891	0.499999990798718	5.4105488558652715
92	-8.188451459186453	-10.690197642276187	0.49214245575618615	0.47048251405467134	-1.0000000099812203	0.688013573591315	0.49999998110062627	5.469359169515981
93	-8.164065948238578	-10.677123514208787	0.5002653694708344	0.41167219981232206	-1.0000000099817432	0.7174187293051927	0.4999999513575445	5.52816948316669
94	-8.142822254081674	-10.665510710238076	0.5078096540714733	0.35286188556914505	-1.0000000099822381	0.7468238832698698	0.05400622200336084	5.586979796817399
95	-8.124688985391733	-10.655419789853472	0.5146702483158514	0.29405157132485377	-1.000000009982707	0.7500000061249773	-1.2754428253609447e-08	5.645790110468108
96	-8.109635974742154	-10.646907217411304	0.5204239428809974	0.23524125707897023	-1.0000000099831516	0.7500000053748854	-2.3017763949959175e-08	5.7046004241188175
97	-8.097632948330029	-10.640027984221987	0.525026898526574	0.17643094283060506	-1.000000009983574	0.7500000040212035	-4.67023321093567e-08	5.763410737769527
98	-8.088654522405998	-10.634827177083782	0.528479115251816	0.11762062857779952	-1.0000000099839754	0.7500000012746246	-1.467158641611412e-07	5.822221051420236
99	-8.082680910307966	-10.631339329377838	0.530780593056455	0.05881031431467251	-1.0000000099843578	0.7499999926462186	-0.025263401986518462	5.881031365070945
100	-8.079698125765995	-10.62958853608082	0.5319313319393917	0.0	0.0	0.7485142440515077	0.0	5.939841678721654
101	-8.079698125765995	-10.62958853608082	0.5319313319394331	-9.987669839067941e-09	-1.0000000097397035	-0.749491928424236	-0.010512479884528164	5.9881653276471045
102	-8.079698126188523	-10.629588536334683	0.5319313321023429	-0.048323660482186656	-1.0000000097343549	-0.7499999298115118	-8.176209498703866e-07	6.036488976572555
103	-8.081710648505656	-10.630772934524567	0.5327082753261917	-0.09664731027077043	-1.0000000097287836	-0.7499999693219396	-2.742924679301368e-07	6.084812625498005
104	-8.085733851053261	-10.633144857148697	0.5342621617225547	-0.1449709599035056	-1.0000000097229753	-0.7499999825767525	-1.3553154562879402e-07	6.133136274423455
105	-8.091763118811619	-10.636712114045364	0.5365929912893127	-0.1932946094676146	-1.0000000097169146	-0.7499999891261313	-7.98957295870082e-08	6.181459923348905
106	-8.099791034281242	-10.64148718113596	0.5397007640248672	-0.24161825899299552	-1.0000000097105846	-0.7499999929869845	-5.190146747810715e-08	6.229783572274355
107	-8.109807330289858	-10.647487172222945	0.5435854799280511	-0.2899419084934219	-1.0000000097039667	-0.7499999954950529	-3.5871081008521046e-08	6.2781072211998055
108	-8.121798824867726	-10.654733799580367	0.5482471389978393	-0.33826555797636604	-1.0000000096970412	-0.7499999972284745	-2.5711784988184516e-08	6.326430870125256
109	-8.135749338404029	-10.663253322985588	0.5536857412333095	-0.38658920744632996	-1.0000000096897859	-0.7499999984709619	-1.8804635792097346e-08	6.374754519050706
110	-8.151639593362288	-10.67307648674606	0.5599012866335278	-0.43491285690623205	-1.0000000096821764	-0.7499999993796704	-1.3818572779915675e-08	6.423078167976156
111	-8.169447096900198	-10.684238444181359	0.5668937751975164	-0.48323650635806875	-1.0000000096741861	-0.7500000000474344	-1.0020538003740826e-08	6.471401816901606
112	-8.189146006810338	-10.696778668929667	0.5746632069242166	-0.5315601558032629	-1.000000009665786	-0.7500000005316634	-6.974253165696465e-09	6.519725465827056
113	-8.21070698127362	-10.710740852359667	0.5832095818124506	-0.5798838052428615	-1.000000009656943	-0.7500000008686847	-4.397793303731631e-09	6.568049114752506
114	-8.234097012997651	-10.726172786284076	0.5925328998608799	-0.6282074546776549	-1.0000000096476216	-0.7500000010812021	-2.1007820576263646e-09	6.616372763677957
115	-8.259279248398064	-10.743126230090583	0.6026331610679505	-0.6765311041082518	-1.0000000096377815	-0.7500000011827196	6.291984634820723e-11	6.664696412603407
116	-8.28621279257282	-10.761656761330007	0.6135103654318321	-0.7248547535351282	-1.0000000096273776	-0.7500000011796791	2.217593486805234e-09	6.713020061528857
117	-8.314852500917992	-10.78182360873115	0.6251645129503344	-0.7731784029586609	-1.0000000096163604	-0.750000001072517	4.7959338519161994e-09	6.761343710454307
118	-8.345148758338933	-10.803689466547638	0.6375956036207959	-0.821502052379151	-1.0000000096046735	-0.7500000008407599	6.8034059969918445e-09	6.809667359379757
119	-8.377047247123743	-10.827320289084762	0.6508036374395325	-0.8698257017968395	-1.0000000095922539	-0.7500000005119944	0.3946690232561881	6.857991008305207
120	-8.410488704666399	-10.85278506420503	0.664788614403056	-0.9181493512119202	-1.0000000095790476	-0.7309281531904118	0.49999979654823434	6.9063146572306575
121	-8.4454086723555	-10.880155564570572	0.6789958345417336	-0.9664730006245507	-1.0000000095649786	-0.7067663385591881	0.4999998976551144	6.954638306156108
122	-8.481753512218729	-10.909485919381677	0.6932390945062146	-1.014796650034856	-1.000000009549956	-0.6826045190420841	0.4999999309035852	7.002961955081558
123	-8.519473090107297	-10.940823202153055	0.707477442467049	-1.0631202994429323	-1.000000009533876	-0.6584426979182687	0.49999994714287516	7.051285604007008
124	-8.558517410353097	-10.974212028710431	0.7216715350318506	-1.1114439488488514	-1.0000000095166193	-0.6342808760096906	0.49999995653361223	7.099609252932458
