	x	y	theta	v	a	sigma	omega	t
0	-0.547263681592035	15.1990049751244	-1.78946527266884	0.00010000999877879689	1.0000000099781905	-0.7230598985975312	-0.002839999479925636	0.05730448048296232
1	-0.5472649248253727	15.198999380574824	-1.7894670789561096	0.05740449108133412	1.0000000099776682	-0.7232226432923	0.49999941230513567	0.11460896096592464
2	-0.5479785308595596	15.195788180811977	-1.7905042054456755	0.11470897215398988	1.0000000099771207	-0.6945704367283676	0.49999980111824066	0.17191344144888696
3	-0.5494111539546859	15.189372858194998	-1.7924598885001994	0.17201345322183068	1.000000009976546	-0.6659182078837022	0.4999999003450616	0.22921792193184928
4	-0.5515782739917091	15.179756890705697	-1.7952256325892604	0.2293179342868129	1.0000000099759423	-0.637265973352895	0.4999999407134262	0.2865224024148116
5	-0.5545027915383334	15.16694550377849	-1.798700017854231	0.28662241534989347	1.000000009975307	-0.6086137365087995	0.49999996118585976	0.3438268828977739
6	-0.558213732201772	15.15094546358446	-1.8027877707025992	0.3439268964116109	1.0000000099746378	-0.5799614984915414	0.49999997302391647	0.40113136338073624
7	-0.5627450450949999	15.131764894502972	-1.807398962497142	0.40123137747229776	1.0000000099739317	-0.5513092597959093	0.4999999804864434	0.45843584386369857
8	-0.568134482504143	15.109413107498003	-1.8124483142893284	0.4585358585321733	1.0000000099731854	-0.5226570206726406	0.4999999854814574	0.5157403243466608
9	-0.5744225497347429	15.08390042926638	-1.8178545897223797	0.5158403395913894	1.0000000099723956	-0.494004781263135	0.49999998896987735	0.5730448048296232
10	-0.5816515156777405	15.05523802454079	-1.8235400615120174	0.5731448206500551	1.000000009971558	-0.4653525416537269	0.4999999914787425	0.6303492853125855
11	-0.5898644759125329	15.023437705961893	-1.8294300395098477	0.630449301708251	1.0000000099706683	-0.43670030190054926	0.4999999933163906	0.6876537657955478
12	-0.5991044611902151	14.988511727594041	-1.8354524504208627	0.6877537827660378	1.0000000099697215	-0.4080480620420659	0.49999999467204387	0.7449582462785101
13	-0.6094135849463819	14.950472559534317	-1.8415374608995438	0.7450582638234623	1.0000000099687114	-0.37939582210589723	0.4999999956656994	0.8022627267614725
14	-0.6208322241067042	14.909332642221555	-1.8476171370773071	0.8023627448805608	1.000000009967632	-0.35074358211278744	0.4999999963745002	0.8595672072444348
15	-0.6333982278932432	14.865104120042352	-1.8536251346452126	0.8596672259373616	1.0000000099664756	-0.32209134207905993	0.49999999684806196	0.9168716877273971
16	-0.6471461496351512	14.817798554696308	-1.8594964144821293	0.9169717069938866	1.0000000099652335	-0.2934391020181952	0.49999999711571247	0.9741761682103595
17	-0.6621064967513391	14.767426619556092	-1.8651669795200905	0.9742761880501531	1.000000009963896	-0.2647868619419927	0.4999999971910257	1.0314806486933217
18	-0.6783049941197856	14.713997776967526	-1.8705736291066695	1.0315806691061737	1.0000000099624513	-0.2361346218614744	0.4999999970733825	1.088785129176284
19	-0.695761855991497	14.657519941104697	-1.8756537275831868	1.0888851501619585	1.0000000099608861	-0.2074823817876977	0.49999999674644635	1.1460896096592463
20	-0.7144910614582458	14.597999129646741	-1.8803449841664281	1.1461896312175133	1.0000000099591846	-0.17883014173265593	0.4999999961734253	1.2033940901422087
21	-0.7344996282525372	14.535439108196895	-1.884585241515117	1.203494112272842	1.000000009957328	-0.15017790171045106	0.499999995286555	1.260698570625171
22	-0.755786879355476	14.469841032040277	-1.8883122705922013	1.2607985933279453	1.0000000099552944	-0.121525661739068	0.4999999939625635	1.3180030511081333
23	-0.7783436965226443	14.401203090555098	-1.8914635696089674	1.318103074382822	1.0000000099530568	-0.09287342184355588	0.4999999919746214	1.3753075315910956
24	-0.8021517544191304	14.329520160373887	-1.893976164963838	1.3754075554374676	1.000000009950583	-0.06422118206196209	0.4999999888592843	1.432612012074058
25	-0.8271827285923588	14.254783474259902	-1.895786412172476	1.4327120364918753	1.0000000099478337	-0.03556894245889148	0.49999998352749225	1.4899164925570203
26	-0.853397470016325	14.176980313644835	-1.8968297948300494	1.4900165175460347	1.0000000099447595	-0.006916703161356926	0.49999997270566787	1.5472209730399826
27	-0.8807451384258835	14.096093733895769	-1.8970407196536538	1.547320998599933	1.0000000099412996	0.021735535516038056	0.4999999399742246	1.604525453522945
28	-0.9091622861400572	14.012102332674477	-1.89635230562537	1.6046254796535517	1.0000000099373763	0.05038777231777406	0.06726409958868144	1.6618299340059073
29	-0.9385718835677287	13.92498007325753	-1.8946961652086052	1.6619299607068692	1.0000000099328907	0.05424230659985769	-0.4999999484689987	1.7191344144888696
30	-0.9688822771223589	13.834696176443963	-1.892849417204052	1.7192344417598557	1.0000000099277147	0.025590069311332966	-0.4999999812028377	1.776438894971832
31	-1.0000652597686976	13.741241482714184	-1.8919488172357992	1.7765389228124755	1.0000000099216757	-0.0030621698529883106	-0.49999999203031226	1.8337433754547943
32	-1.0322006310081888	13.644642833454588	-1.892060153311417	1.8338434038646818	1.000000009914538	-0.03171440963777345	-0.4999999973840953	1.8910478559377566
33	-1.065383670391699	13.544931968006336	-1.8932508333322593	1.891147884916414	1.000000009905973	-0.060366649729355515	-0.5000000005374524	1.948352336420719
34	-1.0997260325675748	13.442146125838775	-1.8955901073900072	1.9484523659675925	1.0000000098955042	-0.0890188900016404	-0.5000000025896374	2.0056568169036812
35	-1.1353566503715682	13.336328786075281	-1.899149302620929	2.00575684701811	1.0000000098824187	-0.11767113039152613	-0.5000000040122153	2.0629612973866434
36	-1.1724226417910428	13.227530567061061	-1.904002073022711	2.0630613280678185	1.0000000098655952	-0.14632337086293357	-0.5000000050408814	2.1202657778696055
37	-1.2110902146529978	13.11581031114724	-1.9102246668495804	2.120365809116505	1.0000000098431654	-0.1749756113932899	-0.5000000058064126	2.1775702583525676
38	-1.2515455603384529	13.001236382608013	-1.9178962144798128	2.1776702901638494	1.0000000098117665	-0.20362785196751645	-0.5000000063870874	2.2348747388355297
39	-1.2939957245880218	12.883888209615735	-1.9270990399892463	2.234974771209339	1.0000000097646726	-0.2322800925750202	-0.5000000068321512	2.292179219318492
40	-1.3386694393806402	12.763858104470815	-1.9379190000734408	2.292279252252075	1.0000000096861914	-0.26093233320803	-0.5000000071734869	2.349483699801454
41	-1.3858178947526631	12.641253399803517	-1.9504458544513894	2.3495837332902596	1.0000000095292447	-0.2895845738606018	-0.5000000074316753	2.406788180284416
42	-1.4357154230526066	12.516198942197578	-1.9647736724701592	2.406888214319397	1.0000000090584438	-0.31823681452797076	-0.5000000076191357	2.464092660767378
43	-1.488660060226115	12.388839988566232	-1.981001281331069	2.464192695321502	0.6248609065602365	-0.34688905520608354	-0.5000000077412221	2.52139714125034
44	-1.5449739389696937	12.259345554535598	-1.999232762197135	2.5000000249460492	2.347143825616508e-13	-0.37554129589119356	-0.5000000077953729	2.5787016217333023
45	-1.6044916719102296	12.129032809008159	-2.0194045470844815	2.5000000249460625	4.777587185242901e-13	-0.4041935365794072	-0.5000000077704326	2.6360061022162644
46	-1.6666257587600597	11.99994707225689	-2.041290007206575	2.50000002494609	7.692951714562583e-13	-0.4328457772661914	-0.5000000076364022	2.6933105826992265
47	-1.7315698411422091	11.872251973115146	-2.0649316806652247	2.500000024946134	1.118419549480112e-12	-0.4614980179452938	-0.5000000073129838	2.7506150631821886
48	-1.7995144194297772	11.746127802304779	-2.0903767066531316	2.5000000249461984	1.5389376671243576e-12	-0.4901502586058603	-0.5000000065491298	2.8079195436651507
49	-1.8706458900801637	11.621773123806575	-2.117677235252966	2.500000024946287	-2.620503028141412e-10	-0.5188024992226505	-0.5000000040831071	2.865224024148113
50	-1.9451453813162352	11.499406469905914	-2.146890898272415	2.50000002493127	3.261268948382347e-12	-0.5474547396981204	-0.49999997431830734	2.922528504631075
51	-2.0231873541985284	11.379268121949943	-2.1780813509229615	2.5000000249314573	3.1435354766671845e-10	-0.5761069784679269	0.5000000028194529	2.979832985114037
52	-2.1049379307268063	11.26162197701418	-2.2113188960771293	2.500000024949471	-1.9368778199505967e-13	-0.5474547380648715	0.5000000060338593	3.037137465596999
53	-2.1905529042019922	11.14675749817854	-2.2425093486132637	2.50000002494946	8.896591869283597e-14	-0.5188024974776106	0.5000000068774998	3.0944419460799613
54	-2.27970833023844	11.034618824253789	-2.271723011514318	2.500000024949465	3.0884359003620364e-13	-0.49015025684200186	0.500000007158624	3.1517464265629234
55	-2.3721012301253253	10.925132184740852	-2.2990235399982084	2.5000000249494825	4.625525521664227e-13	-0.46149801619028186	0.5000000071776795	3.2090509070458855
56	-2.4674483729015497	10.818208405600025	-2.324468565874108	2.500000024949509	-0.36032536807534393	-0.4328457755374698	0.5000000070014927	3.2663553875288476
57	-2.5654850358735897	10.713745087183202	-2.3481102392254187	2.47935176692712	-1.0000000091195298	-0.40419353489475507	0.500000006612518	3.3236598680118097
58	-2.6651338757228835	10.61247190792037	-2.3698149405971702	2.4220472859215105	-1.0000000095599437	-0.3755412942743322	0.5000000059212297	3.380964348494772
59	-2.764603765981341	10.515675419461768	-2.3893577470449605	2.3647428048906067	-1.0000000097067505	-0.3468890536935258	0.5000000046717027	3.438268828977734
60	-2.8635485026992558	10.423084943833667	-2.4068534417113487	2.307438323851233	-1.0000000097801554	-0.31823681318432573	0.5000000020665853	3.495573309460696
61	-2.9616613477645948	10.334441098471512	-2.422410544113525	2.2501338428075943	-1.0000000098241983	-0.28958457282441363	0.4999999940859177	3.552877789943658
62	-3.0586707535786974	10.249497539632838	-2.4361319142603697	2.192829361761373	-1.0000000098535602	-0.26093233292183277	-0.44391768490431716	3.61018227042662
63	-3.154336530738224	10.168022205124478	-2.4481152945714197	2.1355248807134086	-1.0000000098745072	-0.28637080523247405	-0.4999999940874471	3.6674867509095823
64	-3.248446429179033	10.089798149697256	-2.4609849932580747	2.078220399664183	-1.0000000098902027	-0.3150230451351426	-0.5000000019607419	3.7247912313925444
65	-3.341003085450309	10.014858088834057	-2.474845308582608	2.020915918613995	-1.0000000099024016	-0.3436752854889893	-0.5000000045426168	3.7820957118755065
66	-3.432008975512634	9.943238862661255	-2.4896470608344923	1.9636114375630438	-1.0000000099121555	-0.37232752599079194	-0.5000000057984318	3.8394001923584686
67	-3.5214546364357524	9.87496687500868	-2.5053418414143045	1.9063069565114672	-1.0000000099201332	-0.40097976656456114	-0.5000000065196454	3.8967046728414307
68	-3.6093194922890444	9.81005825181174	-2.5218818826527567	1.8490024754593646	-1.0000000099267796	-0.4296320071796616	-0.5000000069684366	3.954009153324393
69	-3.695572703369538	9.748518961336153	-2.539219926516188	1.7916979944068097	-1.0000000099324027	-0.4582842478204819	-0.5000000072550105	4.011313633807355
70	-3.7801740351259183	9.690344907630635	-2.557309090742416	1.734393513353858	-1.0000000099372228	-0.48693648847772586	-0.5000000074316593	4.0686181142903175
71	-3.863074743246697	9.635522007769634	-2.5761027308035764	1.6770890323005523	-1.0000000099414006	-0.5155887291450939	-0.5000000075234231	4.12592259477328
72	-3.9442184713916237	9.584026262639487	-2.59555429590553	1.6197845512469256	-1.0000000099450574	-0.5442409698177212	-0.5000000075391561	4.183227075256242
73	-4.023542157978659	9.535823830245041	-2.615617176992259	1.5624800701930026	-1.0000000099482853	-0.5728932104912501	-0.5000000074743072	4.240531555739204
74	-4.100976948312266	9.490871109768038	-2.6362445444153497	1.5051755891388032	-1.0000000099511563	-0.6015454511610623	-0.5000000073071185	4.297836036222166
75	-4.176449108167801	9.449114843892236	-2.657389172536698	1.4478711080843416	-1.000000009953727	-0.6301976918212927	-0.5000000069837172	4.355140516705128
76	-4.24988093474462	9.410492246223752	-2.6790032480352437	1.3905666270296286	-1.0000000099560429	-0.6588499324629887	-0.5000000063695679	4.41244499718809
77	-4.321191660678378	9.374931159979758	-2.7010381580572895	1.3332621459746707	-1.0000000099581408	-0.6875021730694885	-0.5000000050516664	4.469749477671052
78	-4.390298346570058	9.342350253498083	-2.723444253546614	1.275957664919471	-1.0000000099600508	-0.7161544136004628	-0.5000000009547368	4.527053958154014
79	-4.457116757253238	9.312659257539993	-2.7461705820640288	1.2186531838640302	-1.0000000099617976	-0.7448066538966602	-0.09062739248313298	4.5843584386369765
80	-4.521562216787551	9.285759248826327	-2.769164583085044	1.1613487028083445	-1.0000000099633988	-0.7500000095404318	-6.781162338302158e-10	4.641662919119939
81	-4.583550436939293	9.26154298377487	-2.791306796141202	1.104044221752408	-1.000000009964871	-0.7500000095792909	-4.910190688343244e-10	4.698967399602901
82	-4.642975226467208	9.239831989820416	-2.8123564449885157	1.0467397406962113	-1.000000009966229	-0.7500000096074284	-3.495371887505314e-10	4.756271880085863
83	-4.699736397320972	9.220438304724324	-2.8323135296263815	0.9894352596397403	-1.0000000099674857	-0.7500000096274585	-2.3678761578794303e-10	4.813576360568825
84	-4.753745283052936	9.203180691890491	-2.8511780500543646	0.9321307785829767	-1.000000009968652	-0.7500000096410275	-1.4209749381407319e-10	4.870880841051787
85	-4.804923801255938	9.187885256467606	-2.8689500062721405	0.8748262975258958	-1.000000009969737	-0.7500000096491704	-5.763596759582798e-11	4.928185321534749
86	-4.853203544465371	9.174385985064033	-2.885629398279462	0.8175218164684658	-1.0000000099707493	-0.750000009652473	2.2370994091876645e-11	4.985489802017711
87	-4.898524904495693	9.162525215635808	-2.901216226076135	0.7602173354106447	-1.0000000099716957	-0.7500000096511912	1.0316752678238485e-10	5.042794282500673
88	-4.940836234524452	9.152154043941044	-2.9157104896620045	0.7029128543523782	-1.0000000099725823	-0.7500000096452791	1.913202131884815e-10	5.100098762983635
89	-4.980093052639273	9.143132672737709	-2.929112189036941	0.6456083732935931	-1.000000009973415	-0.7500000096343157	2.885438718271821e-10	5.1574032434665975
90	-5.0162572900235425	9.135330709642906	-2.9414213242008356	0.5883038922341911	-1.000000009974198	-0.7500000096177808	4.105955195724908e-10	5.21470772394956
91	-5.04929658647313	9.128627419276867	-2.952637895153598	0.5309994111740353	-1.000000009974936	-0.7500000095942518	5.658349698275263e-10	5.272012204432522
92	-5.079183635506762	9.122911934989435	-2.9627619018951434	0.47369493011292824	-1.0000000099756325	-0.750000009561827	7.764602614512706e-10	5.329316684915484
93	-5.105895580954082	9.118083435115913	-2.9717933444253943	0.4163904490505725	-1.0000000099762911	-0.7500000095173323	1.0804358148769706e-09	5.386621165398446
94	-5.1294134665746185	9.114051288337036	-2.979732222744275	0.3590859679864903	-1.0000000099769146	-0.7500000094554184	1.551147992556333e-09	5.443925645881408
95	-5.149721739974661	9.110735172328567	-2.986578536851707	0.3017814869198434	-1.000000009977506	-0.7500000093665307	2.346725790677428e-09	5.50123012636437
96	-5.166807811843539	9.10806516948262	-2.9923322867475997	0.2444770058489532	-1.0000000099780675	-0.7500000092320528	3.867329523739846e-09	5.558534606847332
97	-5.180661671322364	9.10598184306838	-2.9969934724318343	0.18717252476961976	-1.0000000099786013	-0.7500000090104375	7.3720423529585165e-09	5.615839087330294
98	-5.191275558142762	9.10443629677657	-3.0005620939042132	0.12986804366503785	-1.0000000099791095	-0.7500000085879864	0.023528218149335343	5.6731435678132565
99	-5.198643692026237	9.103390220162007	-3.0030381511642275	0.0	0.0	-0.7486517362702493	0.0	5.730448048296219
100	-5.198643692026237	9.103390220162007	-3.003038151164648	9.903218680627717e-11	-0.8871607095820518	0.21082464777748505	-0.0034106018641924013	5.730448048096395
101	-5.165881746345717	9.104118502084242	-3.0070309016943244	2.762916224557666e-10	-0.8808139458671554	0.21082464777816656	0.11183543898318582	5.730448047896572
102	-5.133161151512446	9.104846780853197	-3.01101717866369	4.5228282979408534e-10	-0.87415728570649	0.2108246477558193	0.34249443432477406	5.730448047696749
103	-5.1004518938992796	9.105575057327055	-3.0149912030397616	6.269438844724728e-10	-0.8671487706984784	0.2108246476873811	0.26863687001119674	5.7304480474969255
104	-5.067692907901106	9.10630333663001	-3.0189518866091074	8.002044778886024e-10	-0.8597568142917157	0.21082464763370132	0.22548028213833068	5.730448047297102
105	-5.034810918347821	9.107031627921616	-3.022901881346248	9.71987989720733e-10	-0.8519413038972315	0.21082464758864522	0.11424882403408668	5.730448047097279
106	-5.001727488138433	9.107759943831622	-3.026846531874274	1.1422097842317168e-09	-0.8436591935988759	0.2108246475658157	0.0021610052505674944	5.730448046897456
107	-4.9683608672266475	9.108488299669785	-3.030792799874808	1.3107766241239273e-09	-0.8348609122603827	0.21082464756538388	0.007353848925287447	5.730448046697632
108	-4.934625844407731	9.109216712533051	-3.0347482885881707	1.4775853666517488e-09	-0.8254805293401786	0.21082464756391442	0.011858906478687333	5.730448046497809
109	-4.900432712756768	9.109945200455895	-3.038720283781692	1.6425196946391239e-09	-0.8154381416992971	0.21082464756154473	-0.020149864431142514	5.730448046297986
110	-4.865685721120089	9.110673781785433	-3.042714524827744	1.8054473244357108e-09	-0.8046919283848437	0.21082464756557112	-0.022292071578630043	5.730448046098163
111	-4.830281083147592	9.111402475038355	-3.046734090902688	1.9662276156077225e-09	-0.7931070988738707	0.2108246475700256	0.07890710999912647	5.730448045898339
112	-4.7941046059853445	9.112131299581796	-3.0507826957587834	2.1246929934944968e-09	-0.7805214639594535	0.21082464755425814	0.26512914280123495	5.730448045698516
113	-4.757027752563996	9.112860275853158	-3.054865458603265	2.2806434743257696e-09	-0.7667479922981498	0.21082464750127927	0.47226527761045917	5.730448045498693
114	-4.718901041463787	9.113589424667063	-3.0589870998168935	2.433841701195476e-09	-0.751574904107385	0.2108246474069099	0.3647953359739903	5.7304480452988695
115	-4.6795445610669795	9.114318766852952	-3.0631499362027816	2.5840079987584232e-09	-0.7347714113532601	0.21082464733401546	0.00023370533668923754	5.730448045099046
116	-4.63873466072815	9.115048323191346	-3.0673524650556594	2.730816574947559e-09	-0.7159310346900742	0.21082464733396875	-0.002149541407925794	5.730448044899223
117	-4.5961869764388705	9.115778114187426	-3.0715889314994844	2.8738604138369705e-09	-0.6945788591716676	0.21082464733439826	-0.02283409294151914	5.7304480446994
118	-4.5510839909943925	9.11650815934644	-3.0758566027303327	3.0126376006458284e-09	-0.670164462742257	0.21082464733896103	-0.021923423479653377	5.7304480444995765
119	-4.502907207487181	9.117238478051052	-3.0801548452863927	3.1465362336932193e-09	-0.6419603350724806	0.21082464734334183	-0.021369141346574687	5.730448044299753
120	-4.45094585516691	9.117969089110604	-3.0844839176427614	3.274799038116228e-09	-0.6089032202816498	0.21082464734761186	-0.02088751930765103	5.73044804409993
121	-4.394539316828635	9.11870001011586	-3.0888443330943103	3.396456276240051e-09	-0.569482355668006	0.21082464735178566	-0.019852893884855376	5.730448043900107
122	-4.333866129494737	9.119431256944988	-3.093236438298263	3.5102363254936636e-09	-0.521586774692799	0.2108246473557527	-0.017779371394198332	5.730448043700283
123	-4.27139838558529	9.120162843374972	-3.097660190887677	3.6144457439739805e-09	-0.4619015744369789	0.21082464735930542	-0.012256279782943528	5.73044804350046
124	-4.211909432540685	9.120894780752606	-3.1021151003619654	3.7067286964580404e-09	-0.38519415458812617	0.21082464736175452	-0.002488808195915714	5.730448043300637
125	-4.158764179386712	9.12162707768092	-3.106600301421261	3.783683754661905e-09	0.010173741746740244	0.21082464736225184	0.001516443390553068	5.730448043100814
