	x	y	theta	v	a	sigma	omega	t
0	-16.0199004975124	-13.5074626865672	0.200398553825878	0.0001000099951123634	1.0000000099146291	0.7384364628813982	0.013422195143317509	0.05876543419435471
1	-16.01989473799364	-13.507461516664385	0.20040046436893513	0.2860615411288093	1.0000000099123127	0.7392252240225593	-0.49999964392154067	0.11753086838870942
2	-16.003420637489036	-13.5041151822257	0.2058739119496752	0.34482697609303964	1.0000000099098696	0.7098425278504845	-0.49999983375571466	0.17629630258306414
3	-15.983584649293643	-13.499972779746496	0.2120924338007331	0.4035924109621805	1.0000000099072888	0.6804598205227199	-0.4999998951004386	0.23506173677741884
4	-15.960398809018812	-13.494980151520247	0.2189486105510798	0.46235784579949474	1.0000000099045578	0.6510771095900034	-0.49999992465998844	0.2938271709717736
5	-15.93387681215401	-13.489078590404338	0.22634199325522228	0.5211232806207905	1.0000000099016633	0.6216943969202046	-0.49999994164061085	0.3525926051661283
6	-15.904033878399408	-13.482206117977197	0.23417813805431426	0.5798887154323844	1.000000009898589	0.5923116832525296	-0.4999999523777878	0.411358039360483
7	-15.870886596342558	-13.474298671408889	0.24236777829796607	0.6386541502374284	1.000000009895318	0.5629289689538773	-0.49999995956053417	0.4701234735548377
8	-15.834452741816957	-13.465291211964509	0.2508261095052326	0.697419585037718	1.00000000989183	0.5335462542331257	-0.4999999645126687	0.5288889077491924
9	-15.794751065517174	-13.45511876594232	0.25947216739443457	0.7561850198343688	1.0000000098881028	0.504163539221358	-0.49999996795216645	0.5876543419435472
10	-15.751801047223895	-13.443717407200861	0.2682282829683187	0.8149504546281194	1.0000000098841102	0.47478082400746524	-0.4999999702935776	0.6464197761379019
11	-15.705622615428434	-13.431025189170981	0.27701960158373384	0.87371588941948	1.0000000098798227	0.4453981086559772	-0.4999999717844839	0.7051852103322567
12	-15.656235832325926	-13.41698303331593	0.28577365525561693	0.9324813242088155	1.0000000098752062	0.4160153932168745	-0.49999997257118584	0.7639506445266114
13	-15.60366054513503	-13.401535580343497	0.29441997928544505	0.9912467589963928	1.0000000098702206	0.3866326777315405	-0.49999997274015723	0.8227160787209662
14	-15.547916005549224	-13.384632010046674	0.30288976577070426	1.0500121937824105	1.00000000986482	0.35724996223627664	-0.4999999723011001	0.881481512915321
15	-15.489020459870261	-13.366226835419281	0.3111155477246886	1.1087776285670163	1.00000000985895	0.3278672467668145	-0.49999997123863876	0.9402469471096757
16	-15.426990713049783	-13.346280676632405	0.3190309084763366	1.1675430633503203	1.0000000098525466	0.298484531359789	-0.4999999695101024	0.9990123813040305
17	-15.36184167049787	-13.32476102054291	0.3265702117744233	1.2263084981324026	1.0000000098455328	0.2691018160543426	-0.49999996699576915	1.0577778154983852
18	-15.293585862131177	-13.301642971617287	0.333668348625649	1.2850739329133185	1.0000000098378172	0.23971910089665333	-0.4999999635126223	1.1165432496927399
19	-15.222232953750925	-13.276910000476022	0.34026049737964426	1.3438393676931029	1.0000000098292892	0.2103363859436542	-0.4999999587960192	1.1753086838870945
20	-15.147789251484484	-13.250554696680853	0.3462818939569691	1.4026048024717712	1.0000000098198125	0.18095367126783	-0.49999995237441136	1.2340741180814492
21	-15.070257205716107	-13.222579532886645	0.351667609415738	1.4613702372493214	1.0000000098092203	0.15157095696937625	-0.49999994349175597	1.2928395522758038
22	-14.989634921697004	-13.192997648048886	0.3563523322813094	1.5201356720257333	1.0000000097973027	0.1221882431929176	-0.4999999310174083	1.3516049864701585
23	-14.905915684888551	-13.161833658004529	0.36027015323083345	1.578901106800968	1.0000000097837949	0.09280553014952142	-0.4999999127536094	1.4103704206645131
24	-14.819087510084637	-13.129124502415428	0.36335434983787884	1.6376665415749654	1.0000000097683561	0.06342281817940737	-0.49999988441406845	1.4691358548588678
25	-14.729132724513311	-13.094920337765542	0.3655371691481176	1.696431976347641	1.0000000097505402	0.03404010787468078	-0.49999983591451136	1.5279012890532224
26	-14.636027596471827	-13.059285486818807	0.3667496058770324	1.7551974111188795	1.0000000097297528	0.004657400420053683	-0.4999997366312449	1.586666723247577
27	-14.539742022646381	-13.022299455653702	0.36692117400225377	1.8139628458885286	1.0000000097051833	-0.024725301200147487	-0.49999943625982507	1.6454321574419317
28	-14.440239289158331	-12.98405803006763	0.3659796694818387	1.872728280656384	1.000000009675697	-0.05410798516889073	0.15087380182066068	1.7041975916362864
29	-14.337475923620117	-12.944674463755065	0.3638509219214957	1.9314937154221732	1.0000000096396577	-0.04524182069891774	0.49999938815342393	1.762963025830641
30	-14.23140165814961	-12.904280771147302	0.36201567822611314	1.9902591501855251	1.0000000095946107	-0.015859139557168646	0.49999968849725873	1.8217284600249957
31	-14.122023893894605	-12.86285877089399	0.3613531725857942	2.0490245849459225	1.000000009536696	0.013523559234417339	0.4999997882015762	1.8804938942193503
32	-14.009388356577633	-12.820288335283063	0.3619347781748613	2.107790019702619	1.0000000094594808	0.04290626388517205	0.4999998368497429	1.939259328413705
33	-13.89354795338723	-12.776429611003708	0.36383401262787646	2.1665554544544894	1.0000000093513863	0.07228897139475851	0.4999998637883867	1.9980247626080596
34	-13.774563741126363	-12.731122039816588	0.3671267962513984	2.2253208891997263	1.0000000091892554	0.10167168048740699	0.4999998779746185	2.0567901968024143
35	-13.652506109768467	-12.684183387465588	0.3718917274829086	2.2840863239351603	1.0000000089190555	0.13105439041371617	0.49999988153745295	2.115555630996769
36	-13.52745621363486	-12.635408791283849	0.3782103788116268	2.3428517586544446	1.0000000083786893	0.16043710054939705	0.4999998708855287	2.174321065191124
37	-13.39950768576945	-12.584569840796476	0.3861676165089822	2.401617193341706	1.000000006757664	0.18981981005911247	0.4999998247944452	2.233086499385479
38	-13.268768674714801	-12.53141371051022	0.3958519478895333	2.460382627933442	0.6741615605861598	0.21920251686026382	0.4999994841387842	2.2918519335798337
39	-13.13536424676578	-12.47566237021123	0.40735590026739954	2.500000024758406	6.03992409215355e-13	0.24858520364263462	-0.11989521468520295	2.3506173677741886
40	-13.000472366734924	-12.417457707752085	0.4206744262029772	2.5000000247584415	3.8634599553135867e-13	0.24153950930221021	-0.49999851629613445	2.4093828019685435
41	-12.866367627686605	-12.357461699588796	0.4336001470993094	2.500000024758464	2.449421126576538e-13	0.212156879395538	-0.49999814538971965	2.4681482361628984
42	-12.733049561273685	-12.295737351091402	0.44490191286799147	2.500000024758479	2.375365561021524e-13	0.18277427128534302	-0.18374798993957972	2.5269136703572532
43	-12.600437588402455	-12.232510247091735	0.45460015718183006	2.5000000247584926	9.02694976665579e-14	0.1719762408668026	0.4999983883313292	2.585679104551608
44	-12.468445034243404	-12.16800003335994	0.46371362610821265	2.500000024758498	2.6289212112480955e-13	0.2013588632535717	0.499999043881408	2.644444538745963
45	-12.337045865078391	-12.10228960517829	0.4744238956015899	2.5000000247585135	5.383651641998962e-13	0.23074152416402563	0.49999887469263316	2.703209972940318
46	-12.206357995171885	-12.03517565217065	0.48675024331382194	2.5000000247585454	-1.2120707525531767e-13	0.260124175132028	-0.49999629617640395	2.7619754071346727
47	-12.076507302394154	-11.966455934373517	0.5007151410146372	2.5000000247585383	6.808961264703125e-11	0.23074167569279724	-0.49999966285155933	2.8207408413290276
48	-11.947628903683102	-11.89592962456905	0.5130414971186327	2.500000024762539	1.6657170097366132e-10	0.2013589784082902	-0.499999851021796	2.8795062755233825
49	-11.81962960607416	-11.823820111738453	0.5237517729079322	2.500000024772328	-6.152497462918728e-15	0.17197627006587624	-0.4999998895695499	2.9382717097177373
50	-11.692409947798918	-11.750343853140194	0.5328652434143878	2.5000000247723277	7.43473641182865e-14	0.14259355945818517	-0.4999999020909553	2.997037143912092
51	-11.565865187069766	-11.675711249264477	0.5403981291277165	2.500000024772332	1.3240438024603783e-13	0.11321084811466743	-0.49999990427870317	3.055802578106447
52	-11.439886210233368	-11.600127524663728	0.5463637129240421	2.5000000247723397	1.76830459594463e-13	0.08382813664258561	-0.49999990001512273	3.114568012300802
53	-11.314360373440481	-11.523793611317734	0.5507724347773364	2.50000002477235	2.0220199258129558e-13	0.05444542542105525	-0.49999988982656707	3.173333446495157
54	-11.189172290459405	-11.446907033108067	0.5536319653926244	2.5000000247723624	2.364420024611944e-13	0.025062714798260458	-0.49999987199397083	3.2320988806895117
55	-11.064204578528816	-11.369662790577623	0.5549472598466031	2.500000024772376	2.8206196592315785e-13	-0.0043199947765931454	-0.4999998407528674	3.2908643148838665
56	-10.939338573589756	-11.292254245572389	0.5547205920336006	2.500000024772393	2.326714562116495e-13	-0.0337027025155486	-0.49999977736049994	3.3496297490782214
57	-10.814455025832945	-11.214874005659729	0.5529515704329419	2.500000024772407	-0.5420152998824246	-0.06308540652922273	-0.49999958455289806	3.4083951832725763
58	-10.689434786239236	-11.137714808403661	0.5496371354580677	2.4681482603348144	-1.0000000061275498	-0.09246809921247337	0.2996501597382592	3.467160617466931
59	-10.565755590289589	-11.06194818350411	0.5448335296908755	2.4093828257801504	-1.0000000080637312	-0.07485902746906588	0.49999966082432745	3.525926051661286
60	-10.444667243955955	-10.988566337671474	0.5410410242257163	2.350617391111484	-1.0000000087090968	-0.04547633030369207	0.49999985147768755	3.584691485855641
61	-10.32626160892013	-10.917422834263547	0.5387959494658833	2.2918519564046687	-1.0000000090317405	-0.016093621934487747	0.49999991319204873	3.6434569200499958
62	-10.210660676408967	-10.848317276797987	0.5380217697815753	2.233086521678668	-1.0000000092253165	0.013289090061391378	0.4999999429636797	3.7022223542443506
63	-10.097971775808784	-10.78107087799824	0.538644629549207	2.1743210869410645	-1.0000000093543597	0.0426718038068173	0.49999996003192276	3.7609877884387055
64	-9.988289176709205	-10.71552579168279	0.5405930932037245	2.115555652195646	-1.0000000094465276	0.07205451855527031	0.49999997082758135	3.8197532226330604
65	-9.88169543521448	-10.651544378832815	0.5437979018435837	2.056790217444577	-1.000000009515649	0.10143723393813964	0.49999997809869073	3.8785186568274153
66	-9.778262515237675	-10.589008424154907	0.5481917440895174	1.9980247826892057	-1.0000000095694066	0.13081994974830385	0.4999999832342833	3.93728409102177
67	-9.678052713046569	-10.527818315730158	0.5537090389251526	1.93925934793043	-1.0000000096124102	0.16020266586026854	0.49999998697940407	3.996049525216125
68	-9.581119411015699	-10.467892197393041	0.5602857283820156	1.8804939131688752	-1.0000000096475934	0.1895853821923221	0.499999989774574	4.054814959410479
69	-9.487507684383239	-10.409165101165202	0.5678590780417634	1.8217284784049932	-1.0000000096769117	0.21896809868864017	0.4999999918929259	4.113580393604834
70	-9.397254782820252	-10.351588065270748	0.5763674834042907	1.7629630436391204	-1.0000000097017192	0.2483508153094491	0.4999999935151469	4.172345827799188
71	-9.310390506791613	-10.295127241888643	0.5857502802096072	1.7041976088715118	-1.0000000097229829	0.2777335320255932	0.499999994757869	4.231111261993543
72	-9.226937497015973	-10.239762997777833	0.595947556803657	1.6454321741023652	-1.0000000097414123	0.3071162488147706	0.49999999570071907	4.289876696187897
73	-9.146911453807345	-10.18548901017663	0.6068999666018591	1.5866667393318343	-1.0000000097575394	0.3364989656593587	0.49999999639575227	4.348642130382252
74	-9.070321301692877	-10.132311359874839	0.6185485386263815	1.5279013045600407	-1.000000009771771	0.3658816825447938	0.49999999687872976	4.407407564576606
75	-8.997169313438834	-10.080247623038376	0.6308344839696024	1.46913586978708	-1.0000000097844233	0.3952643994586137	0.49999999717007193	4.46617299877096
76	-8.927451206469755	-10.029325963192187	0.6436989958608809	1.4103704350130268	-1.0000000097957462	0.4246471163895558	0.4999999972768997	4.524938432965315
77	-8.861156223624148	-9.979584224703453	0.6570830407782904	1.3516050002379394	-1.00000000980594	0.4540298333267763	0.4999999971941774	4.583703867159669
78	-8.798267209246346	-9.93106902912413	0.6709271377404457	1.2928395654618612	-1.0000000098151662	0.4834125502591352	0.49999999690014935	4.642469301354024
79	-8.7387606907614	-9.8838348758234	0.6851711225214838	1.2340741306848229	-1.0000000098235575	0.5127952671742139	0.4999999963537285	4.701234735548378
80	-8.682606975114394	-9.837943248443322	0.6997538930357876	1.175308695906844	-1.000000009831223	0.5421779840571793	0.4999999954813099	4.7600001697427325
81	-8.629770268774955	-9.793461728823667	0.7146131315135816	1.116543261127933	-1.000000009838254	0.5715607008888729	0.49999999415025914	4.818765603937087
82	-8.580208829413108	-9.75046312014418	0.7296849983018705	1.057777826348088	-1.0000000098447273	0.6009434176423417	0.4999999921151825	4.877531038131441
83	-8.533875156847607	-9.70902458110505	0.7449037911351865	0.9990123915672967	-1.0000000098507078	0.6303261342762122	0.49999998887693015	4.936296472325796
84	-8.490716230459741	-9.669226772988681	0.7602015624716294	0.9402469567855354	-1.0000000098562505	0.659708850719778	0.49999998326608946	4.99506190652015
85	-8.450673799965694	-9.631153021396974	0.775507685907902	0.8814815220027681	-1.000000009861403	0.689091566833612	0.49999997177130096	5.053827340714505
86	-8.413684736264843	-9.594888494313448	0.7907483606737306	0.8227160872189448	-1.000000009866206	0.7184742822719399	0.49999993675676674	5.112592774908859
87	-8.37968144905183	-9.560519397870717	0.8058460406272344	0.7639506524339992	-1.0000000098706954	0.7478569956526128	0.03646718793269898	5.1713582091032135
88	-8.348592378025664	-9.528132190775354	0.820718770834871	0.705185217647845	-1.0000000098748931	0.7500000057853353	-1.3399295337096425e-10	5.230123643297568
89	-8.320342564887218	-9.49781281770987	0.8345065701168104	0.6464197828603745	-1.0000000098788262	0.7500000057774612	-1.498557691275669e-09	5.288889077491922
90	-8.294832553066973	-9.469665667894809	0.8471453861254531	0.5876543480714502	-1.0000000098825184	0.7500000056893977	-3.011342949139473e-09	5.347654511686277
91	-8.271966882892967	-9.44378629562226	0.8586352188589574	0.5288889132808956	-1.0000000098859914	0.7500000055124348	-4.835218189996432e-09	5.406419945880631
92	-8.251656746913065	-9.42025995273261	0.8689760683158518	0.47012347848848257	-1.000000009889264	0.7500000052282911	-7.22634202271762e-09	5.465185380074986
93	-8.23382050509718	-9.399162081315469	0.8781679344949371	0.4113580436939117	-1.0000000098923532	0.750000004803632	-1.0643260315011222e-08	5.52395081426934
94	-8.218384138131144	-9.38055877090802	0.8862108173952115	0.3525926088967829	-1.0000000098952737	0.7500000041781761	-1.5925637194173475e-08	5.5827162484636945
95	-8.205281642363344	-9.364507176399355	0.8931047170158023	0.29382717409654724	-1.0000000098980388	0.7500000032422991	-2.4995675541328824e-08	5.641481682658049
96	-8.19445536968664	-9.351055893354593	0.8988496333559514	0.23506173929242763	-1.000000009900661	0.7500000017734173	-4.316291142809737e-08	5.700247116852403
97	-8.185856315324557	-9.340245287945047	0.9034455664149791	0.1762963044832754	-1.0000000099031505	0.7499999992369301	-8.810115476296787e-08	5.759012551046758
98	-8.17944435614728	-9.332107779112803	0.9068925161921724	0.11753086966729465	-1.0000000099055177	0.7499999940596274	-2.699164141753951e-07	5.817777985241112
99	-8.17518844177442	-9.32666807101355	0.9091904826869127	0.058765434841450484	-1.0000000099077708	0.7499999781978726	-0.03909622081749	5.876543419435467
100	-8.173066740332407	-9.323943334173803	0.9103394658982429	0.0	0.0	0.7477024717841693	0.0	5.935308853629821
101	-8.173066740332407	-9.323943334173803	0.9103394658989343	-9.99542365082802e-09	-1.0000000098891835	-0.6177479503463426	0.005802134618356124	5.977451581055999
102	-8.173066740593306	-9.323943334510995	0.9103394660059663	-0.04214273827677902	-1.0000000098868658	-0.617503432568631	0.49999321941318847	6.019594308482177
103	-8.174156283092069	-9.325345870942167	0.9107899044454961	-0.08428546626751257	-1.0000000098844497	-0.5964323546079654	0.49999740241477675	6.061737035908355
104	-8.176334104087674	-9.328151924716574	0.9116511576254962	-0.12642819419844809	-1.0000000098819295	-0.5753611003642021	0.49999866896972767	6.103879763334533
105	-8.179597209150346	-9.332363817124065	0.9128852782410306	-0.16857092210351315	-1.0000000098792976	-0.5542897927443583	0.49999917957005596	6.1460224907607115
106	-8.183941081853877	-9.33798503869166	0.9144558368521238	-0.21071364999409875	-1.000000009876547	-0.5332184636064234	0.4999994370370477	6.18816521818689
107	-8.189359880400257	-9.34502008477587	0.9163277780813022	-0.25285637787539866	-1.0000000098736688	-0.512147123618127	0.4999995853662475	6.230307945613068
108	-8.195846624185947	-9.353474297613827	0.91846728998509	-0.2949991057502128	-1.000000009870654	-0.4910757773788327	0.49999967872811724	6.272450673039246
109	-8.20339337204814	-9.363353714820928	0.9208416850252183	-0.33714183362022093	-1.0000000098674928	-0.47000442720501395	0.4999997413018929	6.314593400465424
110	-8.211991393690884	-9.374664924257317	0.9234192912421696	-0.37928456148650846	-1.0000000098641741	-0.44893307439416497	0.49999978523261435	6.356736127891602
111	-8.2216313355836	-9.38741492513031	0.9261693524126506	-0.421427289349816	-1.0000000098606858	-0.4278617197319548	0.4999998203663586	6.39887885531778
112	-8.232303382444249	-9.401610995152362	0.9290619361247726	-0.46357001721067037	-1.000000009857014	-0.4067903635891121	0.4999998423960136	6.441021582743958
113	-8.243997415262248	-9.417260563531903	0.932067848833326	-0.5057127450694585	-1.0000000098531445	-0.3857190065178789	0.4999998599132134	6.483164310170136
114	-8.25670316667922	-9.434371089535752	0.9351585570744473	-0.5478554729264719	-1.0000000098490605	-0.36464764870842237	0.4999998736685178	6.525307037596314
115	-8.270410374425971	-9.452949946325274	0.9383061141002812	-0.5899982007819347	-1.0000000098447432	-0.3435762903192791	0.4999998844523024	6.567449765022492
116	-8.28510893340954	-9.473004309732785	0.9414830912909946	-0.6321409286360218	-1.0000000098401722	-0.3225049314756771	0.49999989287678137	6.60959249244867
117	-8.300789046952401	-9.494541051609124	0.9446625137620284	-0.6742836564888715	-1.0000000098353246	-0.3014335722770441	0.4999998993848101	6.6517352198748485
118	-8.317441377605569	-9.517566637336937	0.9478177996467816	-0.7164263843405939	-1.0000000098301738	-0.2803622128041444	0.49999990428588414	6.693877947301027
119	-8.335057197886407	-9.542087027066422	0.9509227025862274	-0.7585691121912769	-1.000000009824691	-0.2592908531246996	0.4999999077853318	6.736020674727205
120	-8.353628541229432	-9.568107580190516	0.9539512570009876	-0.8007118400409906	-1.0000000098188424	-0.2382194932977783	0.4999999100026937	6.778163402153383
121	-8.37314835338274	-9.595632962534417	0.9568777257590879	-0.8428545678897909	-1.0000000098125903	-0.2171481333774111	0.4999999147713311	6.820306129579561
122	-8.39361064443277	-9.624667055689299	0.9596765498847474	-0.884997295737721	-1.0000000098058912	-0.19607677325608036	0.4999999144687808	6.862448857005739
123	-8.41501064159495	-9.655212867871972	0.9623222999786091	-0.9271400235848143	-1.0000000097986954	-0.17500541314749998	0.49999991236877966	6.904591584431917
124	-8.437344942866336	-9.687272445640417	0.9647896290536602	-0.9692827514310947	-1.0000000097909452	-0.15393405312741953	0.4999999090847449	6.946734311858095
125	-8.46061167159704	-9.72084678573979	0.9670532264890039	-1.0114254792765778	-1.0000000097825739	-0.13286269324573763	0.4999999037533855	6.988877039284273
