	x	y	theta	v	a	sigma	omega	t
0	-8.85572139303482	0.621890547263682	-0.98971402799757	0.00010000999907835334	1.000000009989035	0.6582664566108148	-0.02835057642672446	0.08706082788156717
1	-8.855716613535895	0.6218832693903993	-0.9897116232274856	0.08716083876889723	1.0000000099886284	0.6557982319561863	-0.4999996147159424	0.17412165576313435
2	-8.851551163836975	0.6155404587738729	-0.9876264842117306	0.17422166753072985	1.0000000099881905	0.6122678515585517	-0.4999998662977882	0.26118248364470154
3	-8.843198625966853	0.6028795040694934	-0.9838220547902545	0.2612824962892462	1.000000009987718	0.5687374492579932	-0.49999993018440797	0.3482433115262687
4	-8.830600069590698	0.583939499090737	-0.9786292237861931	0.3483433250459293	1.0000000099872062	0.5252070413954126	-0.4999999558926278	0.43530413940783586
5	-8.81367270512825	0.5587761369258278	-0.9723526424609603	0.4354041538014357	1.0000000099866497	0.4816766312946531	-0.4999999685114494	0.5223649672894031
6	-8.792317719054115	0.5274571588477672	-0.9652756914112467	0.5224649825561122	1.000000009986043	0.43814622009528836	-0.49999997524727946	0.6094257951709703
7	-8.766427399431857	0.4900581103813324	-0.9576645796626583	0.6095258113101624	1.0000000099853787	0.39461580830949655	-0.49999997876529956	0.6964866230525375
8	-8.73589164994142	0.4466582320299626	-0.9497717790539614	0.6965866400637151	1.000000009984648	0.35108539621742296	-0.49999998015521896	0.7835474509341047
9	-8.700603983536045	0.3973363676866638	-0.9418389478822418	0.7836474688168554	1.0000000099838402	0.3075549840043418	-0.49999997979881405	0.8706082788156719
10	-8.660467083067795	0.34216681547280997	-0.9340994624834867	0.8707082975696412	1.000000009982943	0.26402457182228956	-0.499999977622437	0.9576691066972391
11	-8.615398015960375	0.2812150777449925	-0.926780649868659	0.9577691263221119	1.00000000998194	0.22049415982971451	-0.4999999730655738	1.0447299345788064
12	-8.565333193280173	0.21453349223197354	-0.9201057959669805	1.044829955074294	1.0000000099808113	0.17696374823386388	-0.4999999647466637	1.1317907624603736
13	-8.510233170271329	0.14215674694200653	-0.9142959905681913	1.1318907838262047	1.0000000099795323	0.1334333373622645	-0.49999994944150955	1.2188515903419408
14	-8.450087395467321	0.06409729941232116	-0.9095718604159456	1.2189516125778521	1.0000000099780706	0.08990292782314463	-0.49999991882716766	1.305912418223508
15	-8.384919028771801	-0.019659262372281414	-0.9061552352014571	1.3060124413292382	1.0000000099763837	0.04637252094933482	-0.49999984668420316	1.3929732461050752
16	-8.314789965338722	-0.10915886298211253	-0.9042707868380555	1.3930732700803568	1.000000009974416	0.002842120356351321	-0.49999961632846757	1.4800340739866424
17	-8.23980622161314	-0.2044835130735238	-0.9041476799494695	1.4801340988311953	1.00000000997209	-0.040688260181671064	-0.49999813749405025	1.5670949018682097
18	-8.160123862442173	-0.30575571740022073	-0.906021270558433	1.567194927581732	1.0000000099692992	-0.08421851197114476	0.49599536174941083	1.6541557297497769
19	-8.075955673572764	-0.4131425928181198	-0.9101348873014421	1.6542557563319338	1.000000009965888	-0.04103674515185752	0.45408317591238434	1.741216557631344
20	-7.987578811457045	-0.5268595347077928	-0.9122468400862334	1.7413165850817536	1.000000009961624	-0.0015038879297800283	0.025089366213194828	1.8282773855129113
21	-7.894803828334393	-0.6467574205965458	-0.9123282651858947	1.8283774138311222	1.0000000099561417	0.0006804130637459438	-0.006857721849384596	1.9153382133944785
22	-7.79740061360281	-0.7726577879550846	-0.9122895836847781	1.9154382425799383	1.000000009948832	8.337412215441876e-05	-0.0008852830246249215	2.0023990412760457
23	-7.695354302425796	-0.9045491357627996	-0.9122846181710076	2.002499071328046	1.0000000099385984	6.300649121235142e-06	1.5705615269182516e-05	2.0894598691576127
24	-7.588669080071724	-1.0424347020711504	-0.9122842258673299	2.0895599000751943	1.0000000099232478	7.667992989001424e-06	-5.344253212518264e-05	2.1765206970391797
25	-7.477345545002932	-1.1863149499214385	-0.9122837276701169	2.17662072882094	1.0000000098976638	3.0152418980967084e-06	-3.4021097204239257e-06	2.2635815249207467
26	-7.361383676645222	-1.3361898633947227	-0.9122835236045729	2.2636815575643934	1.0000000098464956	2.719051409292249e-06	-1.7476508706101843e-05	2.3506423528023137
27	-7.240783514871822	-1.4920594733416028	-0.9122833322241487	2.3507423863033288	1.000000009692991	1.1975320928596128e-06	-7.339701171031283e-05	2.4377031806838807
28	-7.115545059289614	-1.6539237794574075	-0.9122832446941423	2.4378032150288376	0.7144063691772292	-5.19247251067317e-06	0.00011855917222342647	2.5247640085654477
29	-6.985668325037002	-1.8217827934536142	-0.9122836382783033	2.5000000249732715	-1.5087724668350185e-17	5.129387176051447e-06	-0.0001468301490733485	2.6118248364470147
30	-6.852478052866303	-1.9939245251524276	-0.912283239556251	2.5000000249732715	4.3388318078863577e-16	-7.653767160247901e-06	0.00011852563426238214	2.6988856643285817
31	-6.719287712058909	-2.1660662037453284	-0.9122838345056368	2.5000000249732715	-1.3002984201525307e-15	2.6651726838226723e-06	4.545172954453073e-05	2.7859464922101487
32	-6.586097473667126	-2.3382079615797107	-0.9122836273340809	2.5000000249732715	-1.4491338479330914e-15	6.622237886618539e-06	-0.00024839048349302684	2.8730073200917157
33	-6.4529071996124685	-2.5103496918208603	-0.9122831125684393	2.5000000249732715	1.4948015673673764e-15	-1.5002843244187336e-05	0.0006610585725245411	2.9600681479732827
34	-6.319716836945181	-2.68249135350021	-0.9122842787826951	2.5000000249732715	1.915977905315213e-15	4.254946335800485e-05	0.0006114096143280956	3.0471289758548497
35	-6.186526675032044	-2.8546331705079426	-0.9122809712902441	2.5000000249732715	8.330096726429931e-16	9.577929055617042e-05	-0.0035882502580719274	3.1341898037364166
36	-6.0533359437618754	-3.026774546989278	-0.9122735260898526	2.5000000249732715	4.767694636933607e-16	-0.0002166167475578475	-0.21895694682615183	3.2212506316179836
37	-5.920143930868354	-3.198914931834158	-0.9122903643343693	2.5000000249732715	1.9468648490863194e-15	-0.019279189808662955	-0.22385747584989685	3.3083114594995506
38	-5.786954816535606	-3.3710575593743157	-0.9137891770375879	2.5000000249732715	-4.0763627803107916e-15	-0.03876840698363281	0.49999893480329116	3.3953722873811176
39	-5.654023861263796	-3.5433996190222596	-0.9168042677756812	2.500000024973271	-8.82695656938137e-15	0.004761914220243466	0.49999979927476507	3.4824331152626846
40	-5.521613136374567	-3.7161416935943805	-0.9164341076577317	2.50000002497327	-7.748200689318062e-15	0.04829231068572201	0.4999999207345268	3.5694939431442516
41	-5.389138478331461	-3.8888347431636476	-0.9126772861892548	2.5000000249732697	1.3571492216725799e-15	0.09182271772558809	0.4999999542831101	3.6565547710258186
42	-5.2560159797115755	-4.061028891596078	-0.905519513607431	2.5000000249732697	3.136201120987455e-14	0.13535312768622174	0.49999996098076543	3.7436155989073856
43	-5.121664375226826	-4.232265776540721	-0.8949333981644294	2.5000000249732723	7.952422965597143e-14	0.17888353822995887	0.49999992331339194	3.8306764267889526
44	-4.9855075992097655	-4.402070831641596	-0.8808780234354364	2.5000000249732794	1.9774444928496392e-11	0.22241394549434307	-0.49999995551768583	3.9177372546705196
45	-4.846977677000682	-4.569945442723547	-0.8632983082026813	2.5000000249750007	3.388014949670826e-14	0.17888353542622623	-0.49999997165781085	4.004798082552087
46	-4.705518124475167	-4.735358922804656	-0.8492429336987465	2.500000024975004	2.7744390281942887e-14	0.1353531239529366	-0.49999996458504326	4.091858910433654
47	-4.561747672777201	-4.898767862620769	-0.8386568185513192	2.5000000249750065	1.9524629850434763e-14	0.09182271309540806	-0.4999999368396544	4.178919738315221
48	-4.416255443338406	-5.060645704113026	-0.8314990463324599	2.500000024975008	1.0532678282840945e-14	0.04829230465341618	-0.4999998409304791	4.265980566196788
49	-4.269608266113792	-5.2214780074768585	-0.8277422253339843	2.5000000249750087	8.609846241699183e-16	0.004761904561356661	-0.4999992246739252	4.353041394078355
50	-4.122357907002173	-5.381758249973438	-0.8273720659668649	2.5000000249750087	-6.257530974837082e-16	-0.038768441878897004	0.15893592945255666	4.440102221959922
51	-3.975048228746755	-5.541983975390889	-0.8303871594215508	2.500000024975009	-1.7270705344505534e-15	-0.02493134828063138	0.29256646271604175	4.527163049841489
52	-3.8282223148754215	-5.702653124293567	-0.8323255466282988	2.500000024975009	-3.3886912386278757e-16	0.0005397301738094077	-0.016004651535977715	4.614223877723056
53	-3.6817081156695255	-5.863606576646471	-0.8322835918418732	2.500000024975009	1.5462616945959966e-15	-0.0008536480388694275	0.02083984772862377	4.701284705604623
54	-3.5351871638248613	-6.024553881885784	-0.8323499483809611	2.500000024975009	1.3560866212004476e-15	0.0009606863573111675	-0.018058480280704944	4.78834553348619
55	-3.3886768922089203	-6.185510909394018	-0.8322752714379539	2.500000024975009	-4.708404760182847e-16	-0.0006114998862106679	0.005820440868812885	4.875406361367757
56	-3.242154601222739	-6.3464569955142585	-0.832322805092874	2.500000024975009	-1.6715007576937142e-15	-0.00010476748553576003	-0.06141877281623914	4.962467189249324
57	-3.0956399607578025	-6.50741004619269	-0.8323309489715797	2.500000024975009	1.6431323513372915e-15	-0.005451936694387563	-0.08024315804449586	5.049528017130891
58	-2.9491266310798463	-6.668364290063243	-0.8327547479267057	2.500000024975009	-3.161283189095205e-15	-0.01243797246557279	0.4999966563922128	5.136588845012458
59	-2.8026815267975276	-6.829380611673829	-0.8337216372436033	2.5000000249750087	6.85522247079584e-16	0.031092150377948727	0.49999936855437904	5.223649672894025
60	-2.656392175906086	-6.990538454204139	-0.8313039756428986	2.5000000249750087	9.43056656394092e-15	0.07462250934455382	0.49999954147555453	5.310710500775592
61	-2.509713627803502	-7.151342147942128	-0.8254925618729889	2.5000000249750096	-7.1640199816463574e-12	0.11815288336581962	-0.49999949135204663	5.397771328657159
62	-2.362103065006788	-7.311290721377781	-0.8162652194018327	2.500000024974386	5.336988895453582e-15	0.07462251370834792	-0.49999931904681233	5.484832156538726
63	-2.2130229069102887	-7.469870451656123	-0.8104538052908183	2.500000024974387	1.421503312165153e-15	0.03109215905191257	-0.49999620437746645	5.571892984420293
64	-2.0630236989190966	-7.627581142464464	-0.8080361430152097	2.500000024974387	-2.404667613689971e-15	-0.012437924438830867	0.08693940587154993	5.65895381230186
65	-1.912643638491013	-7.784928725283124	-0.8090030285982723	2.500000024974387	-1.67718975707509e-15	-0.004868907788122108	0.049934355639527674	5.746014640183427
66	-1.7624157854413087	-7.942421634841954	-0.8093815058275619	2.500000024974387	-8.340223985282962e-17	-0.0005215814464126242	0.003253766801473032	5.833075468064994
67	-1.6122475506299192	-8.099971390940972	-0.8094220498606902	2.500000024974387	-8.128566778360787e-16	-0.00023830581494267602	0.012567127000943755	5.920136295946561
68	-1.462085703644483	-8.257527235336386	-0.8094405740590276	2.500000024974387	-2.5461035934570443e-15	0.0008557986658536359	0.045041679859229675	6.007197123828128
69	-1.3119267752805213	-8.415085861332601	-0.8093740503453822	2.500000024974387	-1.5474114340609666e-15	0.004777164603584673	0.11642418285397037	6.094257951709695
70	-1.1617573658639062	-8.572634497850643	-0.809002704744216	2.5000000249743866	-0.7155551045310231	0.014913150348251723	-0.49999581939530857	6.181318779591262
71	-1.0115294618094735	-8.730127358757583	-0.8078433766290846	2.4377032051790346	-1.0000000097058035	-0.028616899625598227	-0.49999935617141117	6.268379607472829
72	-0.8648671083717018	-8.88352577128899	-0.8100130119596703	2.350642376452407	-1.0000000098529016	-0.0721472575141319	-0.49999959063940325	6.355440435354396
73	-0.7237639609755836	-9.031752160096874	-0.8152953428211189	2.2635815477129086	-1.000000009901935	-0.11567763581564308	0.3742692518270827	6.442501263235963
74	-0.588642729792623	-9.175204435755118	-0.8234734636983435	2.176520718969075	-1.0000000099264512	-0.08309344490096739	0.4999999031650512	6.52956209111753
75	-0.4598508493410552	-9.314197228030745	-0.8291097815505708	2.089459890223039	-1.00000000994116	-0.03956303939071443	0.49999997353384595	6.616622918999097
76	-0.33696467527968305	-9.448325060971762	-0.8316814508608414	2.0023990614756535	-1.0000000099509645	0.003967372245904406	0.4999999915302514	6.703683746880664
77	-0.21952970777399483	-9.577166663822336	-0.8314344373981238	1.9153382327273414	-1.000000009957967	0.04749778544930569	0.49999999867608197	6.790744574762231
78	-0.1071701699589872	-9.700378707294796	-0.8286036297010426	1.8282774039783438	-1.0000000099632183	0.09102819927482957	0.5000000021849473	6.877805402643798
79	0.00041462149012586345	-9.817686121908014	-0.8234146177621965	1.7412165752288093	-1.0000000099673019	0.1345586134058389	0.500000004140518	6.964866230525365
80	0.10345466900504494	-9.928874292436515	-0.816085337948064	1.6541557464788341	-1.0000000099705686	0.17808902770710267	0.5000000053224324	7.051927058406932
81	0.20211426078677272	-10.033782774901097	-0.8068276204613295	1.567094917728483	-1.0000000099732411	0.22161944211126566	0.500000006073232	7.138987886288499
82	0.29649732066591405	-10.132300220771677	-0.795848673242315	1.4800340889778003	-1.0000000099754682	0.2651498565807947	0.5000000065605037	7.226048714170066
83	0.38665301238976757	-10.22436022878552	-0.7833525350876026	1.3929732602268154	-1.0000000099773527	0.30868027109274665	0.5000000068720001	7.313109542051633
84	0.4725814993483654	-10.309937877448439	-0.7695415310499293	1.305912431475547	-1.000000009978968	0.35221068563181834	0.500000007054534	7.4001703699332
85	0.5542397814762604	-10.389046720701232	-0.7546177649766149	1.2188516027240048	-1.0000000099803683	0.395741100186782	0.5000000071308811	7.487231197814767
86	0.6315475452760851	-10.461736055404497	-0.7387846875542544	1.13179077397219	-1.0000000099815938	0.4392715147483926	0.5000000071064439	7.574292025696334
87	0.7043929726452309	-10.5280882922956	-0.7222487838102044	1.044729945220096	-1.0000000099826756	0.48280192930787563	0.5000000069693055	7.661352853577901
88	0.7726384611187389	-10.588216281959554	-0.7052214322259979	0.9576691164677076	-1.0000000099836375	0.526332343855419	0.5000000066825088	7.748413681459468
89	0.836126213680019	-10.642260464116008	-0.6879209992651466	0.8706082877149992	-1.0000000099844988	0.569862758377993	0.5000000061596166	7.835474509341035
90	0.8946836616884073	-10.690385722021505	-0.6705752494201881	0.783547458961931	-1.0000000099852744	0.6133931728550429	0.5000000051876164	7.922535337222602
91	0.9481286909253505	-10.732777833720851	-0.6534241736330167	0.6964866302084443	-1.0000000099859767	0.6569235872474686	0.5000000031151698	8.009596165104169
92	0.9962746495277184	-10.769639417744429	-0.6367233708068383	0.6094258014544509	-1.000000009986616	0.7004540014594642	0.49999999666567935	8.096656992985736
93	1.0389351291297397	-10.80118527185958	-0.6207481621298138	0.5223649726998157	-1.0000000099872002	0.7439844151099604	0.06909644447795744	8.183717820867303
94	1.0759285287764249	-10.827636998510805	-0.6057986822285222	0.4353041439443201	-1.0000000099877355	0.7500000087698843	-2.06106300867947e-09	8.27077864874887
95	1.1070824377614035	-10.849216798023072	-0.593189544166308	0.34824331518758567	-1.0000000099882276	0.7500000085904465	-4.0775160072941016e-09	8.357839476630437
96	1.1322212600784884	-10.866165014436335	-0.5831022337192198	0.2611824864288724	-1.0000000099886814	0.7500000082354545	-8.906375690962823e-09	8.444900304512004
97	1.1512026368539026	-10.878685345945636	-0.5755367508881641	0.1741216576664151	-1.0000000099891015	0.7500000074600581	-2.79904342885557e-08	8.53196113239357
98	1.1639196735331352	-10.88693626014182	-0.5704930956739122	0.08706082889394706	-1.0000000099894912	0.7500000050231878	-0.23011000991939498	8.619021960275138
99	1.1702989182971852	-10.89102959473233	-0.5679712680773148	0.0	0.0	0.7299664370557696	0.0	8.706082788156705
100	1.1702989182971852	-10.89102959473233	-0.5679712680772491	-9.99852324868417e-09	-1.0000000099727002	-0.7496453786366558	-0.006401052048290518	8.761484397001094
101	1.1702989178286343	-10.891029594434094	-0.5679712678928159	-0.17345481892061418	-1.0000000099720248	-0.7500000072184277	-1.1218305198861523e-08	8.816886005845484
102	1.1621980184885294	-10.885860329175689	-0.5647740034995794	-0.22885642837934153	-1.000000009971315	-0.7500000078399399	-6.646704273627084e-09	8.872287614689874
103	1.1514879336082056	-10.879074204641917	-0.5605555302679313	-0.28425803780670716	-1.000000009970569	-0.750000008208178	-4.272405562351596e-09	8.927689223534264
104	1.1381497105982654	-10.870701486010965	-0.5553158481985666	-0.33965964722358405	-1.0000000099697832	-0.7500000084448761	-2.868147585633769e-09	8.983090832378654
105	1.12215967950555	-10.860780578940089	-0.5490549572918234	-0.3950612566351885	-1.0000000099689548	-0.7500000086037762	-1.9494804665009962e-09	9.038492441223044
106	1.1034896473662759	-10.849358147167084	-0.5417728575479664	-0.4504628660436055	-1.0000000099680797	-0.7500000087117805	-1.2933224382626092e-09	9.093894050067433
107	1.0821071354046627	-10.836489252060883	-0.5334695489672525	-0.505864475449876	-1.0000000099671542	-0.7500000087834326	-7.836859813322913e-10	9.149295658911823
108	1.0579756600500387	-10.822237512422458	-0.5241450315499596	-0.5612660848545933	-1.0000000099661739	-0.7500000088268501	-3.5179617297662067e-10	9.204697267756213
109	1.0310550588778666	-10.806675282517096	-0.5137993052964095	-0.6166676942581268	-1.0000000099651334	-0.7500000088463402	5.210717610472202e-11	9.260098876600603
110	1.0013018626942798	-10.789883845989442	-0.5024323702069925	-0.6720693036607214	-1.0000000099640272	-0.7500000088434534	4.5736746783489284e-10	9.315500485444993
111	0.9686697150761063	-10.771953622972251	-0.49004422628220246	-0.727470913062547	-1.0000000099628488	-0.7500000088181145	9.293533369533926e-10	9.370902094289383
112	0.9331098407457515	-10.752984387348082	-0.4766348735226697	-0.782872522463726	-1.0000000099615907	-0.7500000087666269	0.49286945357645895	9.426303703133772
113	0.8945715641993546	-10.733085490759562	-0.4622043119292668	-0.8382741318643484	-1.0000000099602468	-0.7226942480882359	0.4999999850471831	9.481705311978162
114	0.8530028800138617	-10.712376089588565	-0.4475777195972759	-0.8936757412644827	-1.0000000099588076	-0.6949934444944481	0.49999999666020045	9.537106920822552
115	0.8083687425832349	-10.690948532334382	-0.43283463395726335	-0.9490773506641809	-1.000000009957262	-0.6672926402572775	0.5000000004230432	9.592508529666942
116	0.7606372737883144	-10.668893904064216	-0.41803969060696355	-1.0044789600634827	-1.0000000099555972	-0.639591835811637	0.5000000022079731	9.647910138511332
117	0.7097797169071159	-10.646301789686746	-0.40325455387427867	-1.059880569462418	-1.000000009953799	-0.6118910312671064	0.5000000031790911	9.703311747355722
118	0.6557705605450151	-10.62325960205945	-0.38853834718183794	-1.11528217886101	-1.0000000099518493	-0.5841902266687728	0.5000000037186881	9.758713356200111
119	0.5985876096103038	-10.59985191450303	-0.3739480288998256	-1.1706837882592755	-1.0000000099497286	-0.5564894220405437	0.5000000039811275	9.814114965044501
120	0.5382120078150802	-10.576159797036187	-0.3595387230407284	-1.2260853976572257	-1.0000000099474127	-0.5287886173977745	0.500000004030115	9.869516573888891
121	0.4746282161845092	-10.552260155887204	-0.345364012443123	-1.2814870070548674	-1.0000000099448727	-0.5010878127522911	0.500000003881171	9.92491818273328
122	0.407823952126662	-10.528225075963368	-0.3314762007461677	-1.3368886164522034	-1.000000009942074	-0.4733870081150598	0.5000000035082532	9.98031979157767
123	0.3377900937412426	-10.504121165987883	-0.31792654838737583	-1.3922902258492322	-1.000000009938975	-0.44568620349848953	0.5000000028333463	10.03572140042206
