	x	y	theta	v	a	sigma	omega	t
0	11.2437810945274	6.14427860696518	-1.70786250110508	0.00010000997695796839	0.8434958049483214	-0.07554761674980008	-0.00700573288740911	0.09275450672288317
1	11.243779827027518	6.1442694175910315	-1.7078627518709446	0.07833804728775855	0.7691884250760886	-0.07619743004800394	-0.012782166798040529	0.18550901344576634
2	11.242786989619997	6.137071359721912	-1.708060873416203	0.14968374023264028	0.701479674856765	-0.07738303362420573	-0.017494318439687982	0.2782635201686495
3	11.240887209355202	6.123318109580326	-1.7084453460661746	0.21474914145010576	0.639779809975986	-0.0790057105015319	-0.021288787093584827	0.3710180268915327
4	11.238154035468394	6.103587565825256	-1.709008557981747	0.27409160213568606	0.5835522062236886	-0.08098034144712568	-0.024295588533549774	0.46377253361441584
5	11.23465141039519	6.078406773343212	-1.7097454487542403	0.3282186991710124	0.532308541692023	-0.08323386677709703	-0.02662981422843078	0.556527040337299
6	11.230434874815456	6.048256423990123	-1.7106525273456248	0.3775927153800312	0.4856044159930199	-0.08570390205997692	-0.028393136494721905	0.6492815470601823
7	11.22555258398215	6.013574964836777	-1.711727175602059	0.4226347134479155	0.44303536721044756	-0.08833749342986011	-0.029675175385774466	0.7420360537830655
8	11.220046184997026	5.974762344692869	-1.7129671678262375	0.46372824039431	0.4042332507197363	-0.0910899996846824	-0.03055474012947208	0.8347905605059487
9	11.213951586821487	5.932183428789242	-1.7143703521847693	0.5012226961658048	0.3688629471633717	-0.0939240895334372	-0.031100956043236924	0.9275450672288319
10	11.207299643442882	5.8861711099715714	-1.7159344518502566	0.5354363968782905	0.33661936975725565	-0.09680884336983743	-0.03137428658825834	1.020299573951715
11	11.200116763542091	5.837029142912659	-1.7176569533687978	0.5666593604734906	0.3072247437461709	-0.0997189498461134	-0.031427459301517024	1.1130540806745983
12	11.192425455719441	5.785034725880425	-1.7195350573100092	0.5951558400327291	0.28042613324361615	-0.1026339883311788	-0.03130630361223302	1.2058085873974815
13	11.184244815816026	5.730440852625387	-1.7215656722060113	0.6211666276939445	0.2559931929012616	-0.105537789080048	-0.031050507926203258	1.2985630941203647
14	11.17559096144015	5.673478455045786	-1.7237454374458785	0.6449111500259151	0.2337161238728809	-0.10841786362623765	-0.030694302804021936	1.391317600843248
15	11.166477418031318	5.614358355489727	-1.7260707644263946	0.6665893738089269	0.21340381538223302	-0.11126489854202722	-0.03026707654599807	1.4840721075661312
16	11.156915460383248	5.553273045880457	-1.728537888080236	0.6863835394374855	0.19488215488821536	-0.1140723062969947	-0.029793929017709282	1.5768266142890144
17	11.146914413326186	5.490398309309031	-1.7311429230787834	0.7044597375832329	0.17799249137680212	-0.11683582748636863	-0.029296169101195573	1.6695811210118976
18	11.13648191513124	5.425894698326688	-1.7338819206745442	0.7209693433212636	0.16259023770996522	-0.11955317920021989	-0.028791760735940086	1.7623356277347808
19	11.125624147085256	5.359908882881324	-1.736750923416284	0.7360503206180061	0.14854359923817653	-0.12222374476496499	-0.028295722120045066	1.855090134457664
20	11.114346032563391	5.292574879670439	-1.7397460159249811	0.7498284088921833	0.1357324170455919	-0.12484830051257724	-0.027820482274588002	1.9478446411805472
21	11.102651408784382	5.224015173617989	-1.7428633706295042	0.7624182022815504	0.12404711525520269	-0.12742877562274907	-0.027376198832101125	2.04059914790343
22	11.090543174268289	5.154341741215717	-1.7460992878820791	0.773924131267442	0.11338774278396402	-0.12996804144136792	-0.026971040592331033	2.133353654626313
23	11.078023414831101	5.083656984591896	-1.749450230248408	0.7844413554177883	0.10366310081332222	-0.13246972700731213	-0.026611438093620175	2.226108161349196
24	11.065093510750431	5.012054584374164	-1.7529128510298055	0.794056575199091	0.09478994803619238	-0.13493805782087212	-0.02630230517504465	2.318862668072079
25	11.051754227528328	4.939620278690439	-1.7564840172517677	0.8028487700714744	0.08669227646418937	-0.13737771516305783	-0.026047234251460792	2.411617174794962
26	11.038005792466777	4.866432574996204	-1.7601608274660046	0.8108898694115928	0.07930065123516383	-0.1397937135275472	-0.025848667789521496	2.504371681517845
27	11.023847959064328	4.792563400821343	-1.7639406247775387	0.8182453621997126	0.07255160845667766	-0.14219129395780764	-0.025708048256266852	2.597126188240728
28	11.009280061042743	4.718078698989674	-1.7678210055377543	0.8249748508540622	0.0663871056614399	-0.14457583129262544	-0.025625948611910573	2.689880694963611
29	10.994301057623737	4.643038972374249	-1.7717998241481092	0.8311325540924478	0.06075401994013363	-0.14695275351542886	-0.025602185233973264	2.782635201686494
30	10.97890957150044	4.5674997828066815	-1.7758751944051383	0.8367677632434259	0.05560368926230703	-0.1493274715778336	-0.025635914989838547	2.875389708409377
31	10.963103920787127	4.491512208355203	-1.7800454877911414	0.8419252560129226	0.05089149289642331	-0.15170531822710553	-0.025725718018684455	2.96814421513226
32	10.946882146085377	4.415123262819886	-1.7843093290808731	0.8466456713329203	0.0465764672067655	-0.15409149451202028	-0.025869667640391093	3.060898721855143
33	10.930242033674721	4.338376280961151	-1.7886655895958816	0.8509658485735775	0.042620953432882545	-0.15649102277308935	-0.026065388678315288	3.153653228578026
34	10.91318113572144	4.2613112726761635	-1.7931133783972213	0.8549191340853025	0.03899027435662667	-0.15890870504248636	-0.026310105363925116	3.246407735300909
35	10.895696788299446	4.183965249064201	-1.797652031665829	0.8585356577502404	0.03565243703164952	-0.16134908588734395	-0.02660067988388628	3.339162242023792
36	10.877786127931667	4.106372523073827	-1.8022811004790493	0.8618425819605788	0.03257785899432194	-0.16381641882846681	-0.026933642533909476	3.431916748746675
37	10.859446107288127	4.028564987199606	-1.8070003371524928	0.864864325201684	0.02973911559570594	-0.1663146355559497	-0.027305214358206566	3.524671255469558
38	10.840673510617096	3.950572370491741	-1.8118096802790902	0.8676227621991377	0.027110706293209653	-0.16884731724470733	-0.027711323078571444	3.617425762192441
39	10.82146496943714	3.8724224769566793	-1.8167092385622057	0.8701374023882726	0.0246688379209669	-0.1714176673474983	-0.02814761305265841	3.710180268915324
40	10.801816978979934	3.794141407258439	-1.8216992735071516	0.872425548281058	0.02239122311970868	-0.17402848531162382	-0.028609449946991907	3.802934775638207
41	10.781725915845234	3.7157537654776953	-1.8267801810054825	0.874502435136448	0.020256892253413004	-0.17668214072906968	-0.029091920766490198	3.89568928236109
42	10.761188057309555	3.637282852546914	-1.8319524718190254	0.8763813531851514	0.018246017271616358	-0.17938054748938626	-0.029589829848881196	3.988443789083973
43	10.740199602718228	3.5587508478537973	-1.837216750945721	0.8780737535168369	0.016339746094616935	-0.18212513756103285	-0.03009769140941181	4.081198295806856
44	10.71875669738565	3.480178980390665	-1.8425736958269516	0.87958933860582	0.01452004620498575	-0.18491683408120999	-0.030609719208837517	4.173952802529739
45	10.696855459430072	3.4015876907231455	-1.8480240333361257	0.8809361383291566	0.012769556223668535	-0.1877560234873512	-0.031119813916022615	4.266707309252623
46	10.674492009976655	3.3229967849565565	-1.853568515470849	0.8821205722177529	0.011071444333835338	-0.19064252647643937	-0.03162154874577156	4.359461815975506
47	10.65166250717485	3.2444255817918464	-1.8592078936561287	0.8831474985756476	0.009409272490385766	-0.19357556763216655	-0.03210815397303694	4.45221632269839
48	10.628363184493201	3.1658930536840035	-1.8649428915538224	0.8840202510041143	0.007766865419057202	-0.1965537436157175	-0.032572500956623764	4.544970829421273
49	10.604590393775444	3.087417963043838	-1.8707741762641443	0.884740662774842	0.006128183466423343	-0.19957498987467934	-0.03300708634916571	4.637725336144157
50	10.58034065356608	3.009018994358345	-1.8767023277987251	0.8853090794093775	0.004477198410909489	-0.20263654588735536	-0.033404017225674945	4.73047984286704
51	10.555610703240527	2.9307148830450056	-1.8827278067018565	0.8857243597394819	0.002797771385572632	-0.20573491902768506	-0.033754997930445466	4.8232343495899235
52	10.530397563504057	2.8525245418010146	-1.8888509196975498	0.8859838656442744	0.0010735320956021172	-0.20886584721015503	-0.03405131952148246	4.915988856312807
53	10.504698603854207	2.7744671851593368	-1.8950717832454558	0.8860834405842535	-0.0007122414629935767	-0.21202426055563298	-0.03428385278270923	5.00874336303569
54	10.478511617632588	2.6965624529196175	-1.9013902848991697	0.8860173769786862	-0.002576743562766819	-0.21520424240905264	-0.03444304587649893	5.101497869758574
55	10.451834905323054	2.6188305330834147	-1.9078060423767496	0.8857783724005708	-0.004537762357259766	-0.2183989901393605	-0.034518927821805476	5.194252376481457
56	10.424667366783238	2.5412922848903334	-1.9143183602762428	0.8853574744914979	-0.006613803328270211	-0.22160077626207442	-0.034501119105159316	5.287006883204341
57	10.397008603124428	2.463969362524939	-1.9209261843996341	0.8847440144262226	-0.008824215369000002	-0.2248009105460605	-0.034378850861418356	5.379761389927224
58	10.368859028979657	2.386884340044708	-1.9276280536879287	0.8839255286824551	-0.011189320337556785	-0.2279897038994105	-0.03414099419626313	5.4725158966501075
59	10.340219995920275	2.3100608380677783	-1.9344220498192102	0.8828876687939814	-0.013730546964960283	-0.2311564349751133	-0.033776101360241985	5.565270403372991
60	10.311093927796291	2.2335236527574844	-1.941305744581578	0.8816140986832118	-0.016470570070215906	-0.23428932059580423	-0.03327246062130751	5.658024910095874
61	10.2814844687834	2.15729888765043	-1.9482761452050936	0.880086379080905	-0.019433456125050628	-0.2373754912681898	-0.032618166815187685	5.750779416818758
62	10.251396644919188	2.0814140888984856	-1.9553296379222573	0.8782838384441061	-0.022644816325864486	-0.24040097324133688	-0.03180120967591495	5.843533923541641
63	10.220837039900367	2.0058983845354263	-1.962461930126139	0.8761834296759712	-0.02613196847404946	-0.24335067875801702	-0.030809582157164186	5.936288430264525
64	10.189813985891188	1.9307826284392464	-1.9696679916097537	0.8737595718304638	-0.02992410914215834	-0.24620840635334262	-0.029631411043112545	6.029042936987408
65	10.158337770058807	1.8560995497453172	-1.976941995500028	0.8709839758478621	-0.0340524978168962	-0.2489568532681492	-0.028255112209601058	6.1217974437102916
66	10.126420857503451	1.7818839085778988	-1.9842772596446554	0.8678254532101749	-0.038550654965222246	-0.2515776422635502	-0.026669572926978136	6.214551950433175
67	10.094078131188896	1.7081726591129336	-1.9916661893695269	0.8642497062250328	-0.04345457627179894	-0.2540513653449018	-0.02486436359044235	6.307306457156058
68	10.061327149401889	1.6350051211689203	-1.9991002226967598	0.8602190984380914	-0.048802965649400454	-0.2563576471247115	-0.02282998121869793	6.400060963878942
69	10.028188421177807	1.5624231617507072	-2.006569779296061	0.8556924034326686	-0.05463749003329612	-0.25847523077114437	-0.02055812697622593	6.492815470601825
70	9.994685700025556	1.4904713882492666	-2.0140642146315475	0.8506245299960552	-0.06100305944025658	-0.26038208969797044	-0.01804201985049392	6.585569977324709
71	9.960846296169114	1.4191973553349755	-2.021571780957095	0.8449662213090887	-0.06794813630627303	-0.2620555683494874	-0.015276748459095595	6.678324484047592
72	9.926701407399886	1.3486517879785322	-2.029079596999096	0.8386637254432625	-0.07552507871705089	-0.26347255561714034	-0.012259662784274919	6.771078990770476
73	9.892286468507528	1.2788888234978524	-2.0365736283377736	0.8316584340216568	-0.08379052281351296	-0.26460969459128464	-0.008990807450578508	6.863833497493359
74	9.857641519133374	1.2099662760657333	-2.044038680646646	0.8238864854100384	-0.09280581039137621	-0.2654436325014035	-0.005473397998980666	6.9565880042162425
75	9.822811589777979	1.1419459277252295	-2.051458408062101	0.8152783282461703	-0.1026374685185181	-0.2659513148328971	-0.0017143414978285634	7.049342510939126
76	9.787847105602085	1.0748938506493417	-2.0588153390171477	0.8057582404824511	-0.11335774886426558	-0.26611032773288285	0.002275197196449601	7.142097017662009
77	9.752804307600327	1.0088807661485535	-2.0660909218689993	0.7952437984033313	-0.12504523536783052	-0.26589929293922904	0.00647918211680805	7.234851524384893
78	9.717745690712386	0.9439824467712358	-2.0732655925608756	0.7836452892787429	-0.13778552986514142	-0.26529831959801703	0.010876044120234503	7.327606031107776
79	9.682740458482618	0.8802801687524071	-2.0803188663639927	0.7708650604225521	-0.151672026340485	-0.2642895174905487	0.015437967917906208	7.42036053783066
80	9.647864994003083	0.8178612230371742	-2.0872294554231887	0.7567967964356819	-0.16680678556852838	-0.2628575763915199	0.020130125310890302	7.513115044553543
81	9.613203347095045	0.7568194941246623	-2.093975413353557	0.7413247153222449	-0.183301523061833	-0.26099041654803884	0.024909850742112525	7.6058695512764265
82	9.578847738019558	0.6972561170317041	-2.1005343074761824	0.724322672969093	-0.20127872443965947	-0.25867991562991394	0.02972575400106963	7.69862405799931
83	9.544899078479126	0.6392802237460012	-2.1068834184039984	0.7056531641698829	-0.2208729035896025	-0.2559227179805794	0.034516763392202686	7.791378564722193
84	9.511467511299333	0.5830097916074838	-2.1129999655512024	0.6851662069489799	-0.24223202031180927	-0.2527211326184656	0.039211090960303625	7.884133071445077
85	9.478672970981293	0.5285726071059677	-2.1188613556878337	0.6626980953924723	-0.2655190755270653	-0.2490841272183771	0.04372510955952298	7.97688757816796
86	9.44664576830897	0.47610735959719624	-2.1244454498249543	0.638070004516445	-0.29091390360816477	-0.24502842624978008	0.04796212980897905	8.069642084890843
87	9.415527203391768	0.42576488040802857	-2.129730841402566	0.611086428888443	-0.31861518297248625	-0.24057972255796992	0.05181106350380501	8.162396591613726
88	9.3854702129251	0.3777095437253807	-2.1346971358378397	0.5815334347574106	-0.34884268776356775	-0.23577401291988706	0.0551449591055146	8.25515109833661
89	9.35664005904728	0.33212084656009855	-2.1393252178094393	0.5491767033300178	-0.38183980525437533	-0.2306590694398021	0.05781939482722701	8.347905605059493
90	9.32921506892163	0.2891951859900876	-2.1435974879837536	0.5137593405464881	-0.4178763455152817	-0.22529605999358762	0.05967071589743767	8.440660111782377
91	9.303387435996841	0.24914785290026792	-2.147498044939429	0.47499942624705876	-0.45725167187578103	-0.21976133217472008	0.060514105173913715	8.53341461850526
92	9.279364095645674	0.21221526269255805	-2.1510127804379824	0.4325872729740088	-0.5002981827136175	-0.2141483761995376	0.06014148068315525	8.626169125228143
93	9.257367689291332	0.17865744516584411	-2.154129346431214	0.38618236182205407	-0.5473851770377639	-0.20856998282518827	0.058319220046704	8.718923631951027
94	9.237637631768418	0.14876081831901186	-2.1568369396677154	0.33540991973849993	-0.5989231380657478	-0.20316061233729346	0.054785720026697786	8.81167813867391
95	9.22043129583256	0.12284127474921386	-2.159125833675499	0.27985709950229204	-0.6553684703719699	-0.19807898990075956	0.04924880901475999	8.904432645396794
96	9.206025324326705	0.10124761540989725	-2.1609865672719235	0.21906872031121127	-0.7172287270265366	-0.19351094091390636	0.04138303985846174	8.997187152119677
97	9.1947170728249	0.08436537495264107	-2.1624086723544877	0.1525425235283852	-0.7850683632963136	-0.18967247746514163	0.030826897394774132	9.08994165884256
98	9.186826170999634	0.07262109745233628	-2.1633787900039585	0.07972389474709615	-0.8595150528403318	-0.1868131438034926	0.017179954986893026	9.182696165565444
99	9.182696165565435	0.066487143545304	-2.1638779808847755	0.0	0.0	-0.1852196255531621	0.0	9.275450672288327
100	9.182696165565435	0.066487143545304	-2.1638779808847657	-9.874403508638063e-09	-0.5362754778222474	0.463436693011383	0.05822897107839406	9.401096686763676
101	9.182696166258872	0.0664871445741243	-2.163877981106147	-0.06738088632363866	-0.4886313075333948	0.47075293115438344	0.1015882492587959	9.526742701239025
102	9.187428053075035	0.0735074558623554	-2.165416742743917	-0.12877546266309337	-0.44600481236584993	0.4835170897912791	0.13196371134962914	9.652388715714373
103	9.196492067120547	0.08691044249138107	-2.168451032591029	-0.1848141897736922	-0.40678851275394246	0.5000978041777348	0.15084076100963242	9.778034730189722
104	9.209558739749767	0.106106396067211	-2.1729827219108913	-0.23592554513558261	-0.36975809346145316	0.5190503446190227	0.15943812549091985	9.90368074466507
105	9.226349946793407	0.1305352521189832	-2.1790309901751126	-0.2823841758990197	-0.33402441443446057	0.5390831096423759	0.15882031114632794	10.02932675914042
106	9.246624169679471	0.15965256574253303	-2.1866109308813058	-0.3243530123101729	-0.2989975917841726	0.559038248755645	0.14999599347136852	10.154972773615768
107	9.270164450545769	0.19291991080438325	-2.195716617337801	-0.36192086805558177	-0.26435676646725065	0.5778846475225906	0.1340015201401705	10.280618788091116
108	9.296768174400329	0.22979969915170054	-2.2063079674214765	-0.39513624216178195	-0.2300196555808993	0.5947214044618385	0.11196325362405314	10.406264802566465
109	9.326238279082784	0.2697542574869769	-2.218301608477429	-0.4240372951365133	-0.19610692314270148	0.6087891410473902	0.08512988116857038	10.531910817041814
110	9.35837584939772	0.3122487910068515	-2.2315664193125575	-0.44867734844041574	-0.162898326976249	0.6194853713289775	0.05486711256909401	10.657556831517162
111	9.392974304161413	0.35675759353795344	-2.2459244535080733	-0.4691448739896817	-0.13078054083973054	0.6263792053490506	0.022612920140443322	10.78320284599251
112	9.429815512191988	0.40277256887421203	-2.2611574877060616	-0.4855769277171222	-0.10018992960024954	0.6292204286403423	-0.01019955462333285	10.90884886046786
113	9.468668150185612	0.4498128806476282	-2.277018584727749	-0.49816539306195684	-0.07155627214999635	0.6279388952524926	-0.04223539855506077	11.034494874943208
114	9.509288441341143	0.49743443590845504	-2.2932470900176805	-0.5071561534683148	-0.0452543826074717	0.6226321857542669	-0.07234685802210293	11.160140889418557
115	9.5514231315418	0.5452379944145543	-2.3095847713621467	-0.5128421862804836	-0.021569328819725876	0.6135420913839715	-0.0996389479355523	11.285786903893905
116	9.594814253322626	0.5928749860835972	-2.325790670024518	-0.5155522864815879	-0.0006780162410848285	0.6010228546893488	-0.1235006522801177	11.411432918369254
117	9.639204992261888	0.6400505485262797	-2.3416527160004326	-0.5156374765200274	0.017353492988503576	0.5855054899452427	-0.14360067343954647	11.537078932844603
118	9.68434587428748	0.6865237558662316	-2.3569950605178955	-0.513457079288794	0.03256020913804731	0.5674626376515847	-0.15985494171641088	11.662724947319951
119	9.730000550863629	0.7321053913428188	-2.371681048642414	-0.5093660187801126	0.04506053893949151	0.5473775013307262	-0.17237720838020532	11.7883709617953
120	9.775950635480047	0.7766538528808054	-2.38561249775894	-0.5037043416522524	0.055035170329643536	0.525718992111365	-0.18142400854127916	11.914016976270648
121	9.821999275203595	0.820069861417963	-2.3987263308851006	-0.4967893918443592	0.06270603680700118	0.5029237885080106	-0.18734260650366782	12.039662990745997
122	9.86797336327656	0.8622905977774414	-2.410989664916114	-0.4889106282360136	0.06831762663192179	0.47938493665940063	-0.19052701479607115	12.165309005221346
123	9.913724472197458	0.903283775488769	-2.4223942881237983	-0.48032679073129647	0.07212174913083867	0.4554459766003885	-0.19138406766972252	12.290955019696694
124	9.959128696358604	0.9430420118758024	-2.432951203906724	-0.47126498039601455	0.07436601382503771	0.4313993312636078	-0.19030937380842802	12.416601034172043
