	x	y	theta	v	a	sigma	omega	t
0	-3.43283582089552	5.29850746268657	-1.83561365670069	0.00010000999749700841	1.0000000099603945	-0.0005701034654505831	0.00010155234572777945	0.0649222016363546
1	-3.4328375202940395	5.2985011961541435	-1.8356136580226927	0.13974848715827898	1.0000000099592836	-0.0005635104635845995	0.008727212962636503	0.1298444032727092
2	-3.435212165823047	5.28974469081137	-1.8356154839536576	0.2046706895341614	1.0000000099581088	3.079416099095352e-06	0.0024745381637802885	0.19476660490906383
3	-3.4386900110584384	5.276920229271544	-1.8356154693399895	0.2695928918628229	1.0000000099568642	0.00016373188172489416	0.0004811768124260738	0.2596888065454184
4	-3.443271039763782	5.260027807134723	-1.835614445865783	0.33451509417567615	1.0000000099555433	0.0001949709397639584	-0.000468878892557103	0.324611008181773
5	-3.448955230673806	5.239067418635089	-1.8356129336254488	0.39943729648056986	1.0000000099541388	0.0001645302897583358	-0.0008587617462394045	0.3895332098181276
6	-3.4557425632284486	5.21403905819759	-1.8356114098194185	0.46435949878063987	1.000000009952643	0.00010877758651139347	-0.000883694609426683	0.4544554114544822
7	-3.4636330247876166	5.1849427223948	-1.8356102386250863	0.5292817010774505	1.000000009951046	5.14061868932349e-05	-0.0007143510891719317	0.5193776130908369
8	-3.4726266146477807	5.15177841103621	-1.8356096077585689	0.5942039033718923	1.0000000099493376	5.02894144286531e-06	-0.0004799141744345657	0.5842998147271915
9	-3.482723343397771	5.114546126993514	-1.8356095384722821	0.6591261056645182	1.0000000099475057	-2.6128143357920195e-05	-0.00019040008612578838	0.6492220163635462
10	-3.4939232290982707	5.073245875164577	-1.8356099377841988	0.7240483079556939	1.0000000099455364	-3.848933614095793e-05	0.0003393089918984772	0.7141442179999008
11	-3.5062262924450116	5.027877661161811	-1.8356105839488135	0.7889705102456711	1.0000000099434136	-1.6460649351896796e-05	0.0014995545840714279	0.7790664196362554
12	-3.5196325488901996	4.978441489175678	-1.8356108850711297	0.8538927125346298	1.0000000099411186	8.089373571990831e-05	0.0010759677217322297	0.8439886212726101
13	-3.5341419852297737	4.92493735562554	-1.8356092834735356	0.9188149148227008	1.0000000099386295	0.00015074792910441722	-0.004219024999290008	0.9089108229089647
14	-3.5497544943700308	4.867365231469496	-1.835606071924169	0.9837371171099806	1.0000000099359208	-0.00012316046260830955	0.0011910696155551887	0.9738330245453194
15	-3.566469964042783	4.8057250862629335	-1.8356088811430549	1.0486593193965403	1.0000000099329618	-4.5833600864300196e-05	0.0007190008989939682	1.038755226181674
16	-3.584288763732229	4.740017020202592	-1.8356099955751404	1.1135815216824319	1.0000000099297164	8.455204769064456e-07	8.310778517106833e-05	1.1036774278180286
17	-3.603210798038402	4.670241007418137	-1.8356099737437523	1.1785037239676917	1.0000000099261406	6.241060863333393e-06	-4.1265714930432e-05	1.1685996294543832
18	-3.6232359921220088	4.596397027614547	-1.8356098032044097	1.2434259262523437	1.0000000099221815	3.5619997979515652e-06	0.00011687209521548239	1.2335218310907379
19	-3.644364334219294	4.518485077601739	-1.8356097005094762	1.3083481285364005	1.0000000099177742	1.1149593529194356e-05	-0.00017804270602167474	1.2984440327270925
20	-3.666595828504629	4.436505158511771	-1.8356093622752436	1.373270330819864	1.0000000099128374	-4.093309310270096e-07	-3.1981876351674995e-05	1.3633662343634472
21	-3.6899304538748248	4.3504572646218795	-1.8356093753088862	1.4381925331027265	1.0000000099072701	-2.485664756239405e-06	5.061596946211683e-05	1.4282884359998018
22	-3.7143682392328246	4.260341403770064	-1.835609458197484	1.5031147353849694	1.000000009900943	8.00435419199721e-07	-4.171993714156888e-05	1.4932106376361565
23	-3.7399091912638665	4.16615757776928	-1.8356094303007322	1.5680369376665622	1.0000000098936892	-1.9081147521612435e-06	-8.005865638363834e-05	1.5581328392725111
24	-3.7665532997574562	4.06790578385067	-1.8356094996746124	1.6329591399474614	1.000000009885289	-7.1056989846354315e-06	0.0001298883314515691	1.6230550409088658
25	-3.794300574439323	3.9655860246517247	-1.835609768714908	1.6978813422276064	1.0000000098754478	1.3269374600729995e-06	-0.0003875322814124112	1.6879772425452204
26	-3.8231510371159314	3.8591983060860175	-1.8356097164761314	1.7628035445069161	1.0000000098637591	-2.3832511454380097e-05	0.00016850482330286134	1.752899444181575
27	-3.8531046544890586	3.7487426191237225	-1.8356106905882208	1.8277257467852805	1.0000000098496498	-1.289280733921348e-05	0.004013915159524726	1.8178216458179297
28	-3.884161543675115	3.634218995524848	-1.835611236966883	1.8926479490625518	1.0000000098322803	0.0002476994019986713	0.013368261989033804	1.8827438474542844
29	-3.9163216618737846	3.515627423682814	-1.8356003669551395	1.9575701513385257	1.0000000098103732	0.00111559640237834	-0.0066257771976847395	1.947666049090639
30	-3.949583613199213	3.3929675250638156	-1.8355497309042796	2.0224923536129147	1.0000000097818835	0.000685436359152693	-0.22479852244405382	2.0125882507269934
31	-3.9839422697018327	3.266237909292662	-1.8355175876900975	2.0874145558852963	1.0000000097433197	-0.013908978642514759	-0.49981595873841217	2.077510452363348
32	-4.019399638161954	3.135439120684729	-1.8361908234297635	2.1523367581550215	1.0000000096881905	-0.04635813109679787	0.4998510780173204	2.1424326539997023
33	-4.05605058099053	3.0005969077367403	-1.838505991992567	2.2172589604210184	1.000000009610238	-0.01390669862160817	0.22820410768469912	2.2073548556360567
34	-4.094128545331367	2.8617751544259593	-1.839220988083937	2.2821811626818187	1.0000000094803174	0.0009088144717422666	-0.00026243465297708015	2.272277057272411
35	-4.133423600503521	2.7189167056327674	-1.8391728974305424	2.347103364934051	1.0000000092204746	0.0008917766362853171	-0.011869353018752377	2.3371992589087656
36	-4.173829433596186	2.571992356967354	-1.8391243659400993	2.412025567169281	1.0000000084409337	0.0001211921063087988	-0.0021373053100795947	2.40212146054512
37	-4.2153455870716545	2.4210019829718474	-1.8391175880979467	2.4769477693537705	0.3550750739189902	-1.7566459990640234e-05	9.859343726914628e-05	2.4670436621814744
38	-4.257978140498767	2.26594725547142	-1.8391185969705013	2.5000000248987826	1.3819632213155462e-14	-1.1165556976231369e-05	0.000101743879974177	2.531965863817829
39	-4.30100762098441	2.109449520686487	-1.8391192441959912	2.5000000248987835	-4.291775886250776e-15	-4.560120285282774e-06	0.00021016980006899916	2.5968880654541833
40	-4.344037202759367	1.9529518137513628	-1.839119508529073	2.500000024898783	-5.185630294045675e-16	9.084565852669115e-06	-0.00015728939694696092	2.6618102670905377
41	-4.387066825901844	1.7964541181903861	-1.8391189819308391	2.500000024898783	-1.7753156589611337e-15	-1.1270080911821076e-06	-0.0002067999696976001	2.726732468726892
42	-4.430096366632904	1.6399563999701074	-1.8391190472592742	2.500000024898783	-2.574129689358182e-15	-1.4552917422281732e-05	0.0004923672604792345	2.7916546703632465
43	-4.4731259175877165	1.483458684560882	-1.8391198908373536	2.500000024898783	-7.881964629300751e-16	1.7412649141690645e-05	-0.0002071923831266021	2.856576871999601
44	-4.5161556005605545	1.3269610054504979	-1.8391188814913446	2.500000024898783	-2.586166337325377e-15	3.961263466828539e-06	-0.0005023967416582632	2.9214990736359554
45	-4.559185125573064	1.1704632829083548	-1.8391186518717482	2.500000024898783	-1.4562682192313994e-15	-2.865543909655679e-05	0.0007802360217010403	2.98642127527231
46	-4.602214614650628	1.0139655504857936	-1.8391203129201534	2.500000024898783	-7.082095893082273e-16	2.199920122826528e-05	-8.07142129888626e-05	3.0513434769086643
47	-4.645244363678441	0.8574678895375126	-1.8391190377089102	2.500000024898783	1.8697914371435703e-15	1.6759056817682663e-05	-0.0009019251664996287	3.1162656785450187
48	-4.688273913138642	0.700970173717339	-1.8391180662491986	2.500000024898783	2.7836943933025564e-15	-4.1795910702708926e-05	0.0008154921285612814	3.181187880181373
49	-4.731303310567597	0.5444724160957656	-1.839120489001494	2.500000024898783	1.159684738808921e-15	1.1147633700606575e-05	0.0005490359389827383	3.2461100818177275
50	-4.774333087151727	0.38797476272422293	-1.8391198428149493	2.500000024898783	-1.2131649001434428e-15	4.679225563684919e-05	-0.0014750140443787207	3.311032283454082
51	-4.817362762609171	0.23147708154745023	-1.8391171304432634	2.500000024898783	1.1110700946850129e-15	-4.896890356876101e-05	0.0002158419079738704	3.3759544850904364
52	-4.860392013586577	0.07497928365877982	-1.839119968987072	2.500000024898783	1.371070526485092e-15	-3.495597169770591e-05	0.0022033642356094583	3.440876686726791
53	-4.903421708789665	-0.08151839208884615	-1.8391219952537388	2.500000024898783	2.8975038239873006e-15	0.00010809128548486367	-0.0022891338586095377	3.5057988883631452
54	-4.946451721098688	-0.23801598064651375	-1.8391157296070166	2.500000024898783	-4.882006494564138e-16	-4.052432445639115e-05	-0.0014736030967549	3.5707210899994997
55	-4.989480752848263	-0.39451383881196506	-1.839118078650223	2.500000024898783	-6.908873431088218e-16	-0.00013619388183586933	0.0051443532829367495	3.635643291635854
56	-5.032510152217951	-0.5510115958999298	-1.8391259732991525	2.500000024898783	6.172013663395327e-17	0.00019778885928759308	-0.002925294425962614	3.7005654932722085
57	-5.075540787081149	-0.707509013281016	-1.8391145082201352	2.500000024898783	1.3362795352018275e-15	7.872304719544138e-06	-0.00443892155447943	3.765487694908563
58	-5.118569627686262	-0.8640069240014455	-1.8391140518921356	2.500000024898783	-8.471678341245043e-16	-0.00028031225548833	0.008069823343405984	3.8304098965449174
59	-5.161598396876991	-1.0205048543571233	-1.8391303005434123	2.5000000248987835	-2.143867407496427e-14	0.00024359844278203457	-0.0021235682453897477	3.895332098181272
60	-5.204629708942337	-1.1770020855326768	-1.8391161800544025	2.500000024898782	-0.5076281661978513	0.00010573171696628167	-0.0057309754008039076	3.9602542998176262
61	-5.24765881118596	-1.3334999243157972	-1.8391100511830256	2.4670436867365924	-1.0000000084409404	-0.00026633582357769766	0.0026289932630455828	4.025176501453981
62	-5.29011973426567	-1.4879349850812955	-1.8391252861544323	2.4021214845521026	-1.000000009220476	-9.565579285363446e-05	0.00873625362504191	4.0900987030903355
63	-5.331465555527244	-1.638305335421577	-1.8391306138751706	2.3371992823168726	-1.000000009480318	0.0004715210265376703	-0.00799877202582345	4.15502090472669
64	-5.371694701639469	-1.7846114079147575	-1.8391050614545223	2.27227708006464	-1.0000000096102386	-4.7776863766072175e-05	-0.011581390303364011	4.219943106363045
65	-5.4108027368308385	-1.926854422192299	-1.8391075786337188	2.20735487780384	-1.0000000096881907	-0.0007996662202703924	0.023124213746574595	4.2848653079994
66	-5.448793747409647	-2.065033254719621	-1.8391485062274489	2.142432675537843	-1.000000009740159	0.0007016086472668864	-0.006325353319600243	4.349787509635755
67	-5.485672864287858	-2.199146494677594	-1.8391136534498078	2.077510473268333	-1.000000009777279	0.00029095278363061464	-0.007958183710689137	4.41470971127211
68	-5.52142989957246	-2.329196943373359	-1.8390996381962736	2.0125882709962717	-1.0000000098051192	-0.0002257100238938979	-0.014073483943402272	4.479631912908465
69	-5.556067761770389	-2.455183801019347	-1.839110170927434	1.9476660687222571	-1.0000000098267725	-0.001139391586193459	0.03770844234087009	4.54455411454482
70	-5.589589557752983	-2.5771062134149907	-1.8391616253729026	1.8827438664466862	-1.0000000098440953	0.0013087235108533604	-0.01653629470802198	4.6094763161811745
71	-5.622000024828653	-2.6949628778918777	-1.839104494007746	1.8178216641698346	-1.0000000098582684	0.00023515085150097425	-0.014082153906124462	4.674398517817529
72	-5.653286388411612	-2.8087573070751217	-1.8390945826524114	1.7528994618919007	-1.0000000098700794	-0.000679093583866616	-0.039172515925580485	4.739320719453884
73	-5.6834542942889685	-2.9184879485129938	-1.8391221834676257	1.6879772596130307	-1.0000000098800732	-0.003222259561390467	0.05102454639717505	4.804242921090239
74	-5.712507786790947	-3.0241536902609285	-1.8392482976194717	1.6230550573333338	-1.0000000098886395	9.036632821045585e-05	0.21588709870062003	4.869165122726594
75	-5.740456650460708	-3.125751841080186	-1.839244896866412	1.5581328550528932	-1.0000000098960635	0.014106232080739675	0.4996170809118663	4.934087324362949
76	-5.767287227893956	-3.223286157112303	-1.838735238068795	1.4932106527717717	-1.0000000099025594	0.046542472948666855	0.42374060078443576	4.999009525999304
77	-5.792952223259025	-3.316769635842017	-1.837122664671917	1.4282884504900173	-1.0000000099082913	0.07405264567430396	-0.4999785220096615	5.063931727635659
78	-5.817357122736686	-3.4062280864855494	-1.8346657697128657	1.3633662482076645	-1.0000000099133863	0.04159293925454615	-0.4999956777246754	5.1288539292720134
79	-5.840442838941981	-3.4916772209411926	-1.8333501877871106	1.2984440459247377	-1.000000009917945	0.00913211904799895	-0.49999819385691835	5.193776130908368
80	-5.862322154106981	-3.5730862034678874	-1.8330752451559746	1.2335218436412523	-1.0000000099220474	-0.023328864511393137	-0.4999990021251999	5.258698332544723
81	-5.883086239068762	-3.6504304487246	-1.8337425963616392	1.1685996413572146	-1.0000000099257593	-0.055789900545341664	-0.4999993526314304	5.323620534181078
82	-5.902806372225423	-3.7236908002917524	-1.8352558351108215	1.1036774390726232	-1.0000000099291335	-0.08825095933492647	-0.49999953239542744	5.388542735817433
83	-5.921535622556612	-3.792852869698615	-1.8375200952612027	1.0387552367874677	-1.0000000099322144	-0.12071202979518586	-0.49999963354967203	5.453464937453788
84	-5.9393104960663425	-3.8579065019399494	-1.8404416606689482	0.9738330345017299	-1.0000000099350386	-0.15317310682260163	-0.49999969481968587	5.518387139090143
85	-5.956152548399635	-3.9188453371525767	-1.8439275807138742	0.9089108322153805	-1.0000000099376367	-0.18563418782780167	-0.49999973375829676	5.5833093407264975
86	-5.9720699673822555	-3.9756664418489374	-1.8478852869699003	0.8439886299283791	-1.000000009940035	-0.2180952713609822	-0.4999997552958276	5.648231542362852
87	-5.9870591298607	-4.028369986422476	-1.8522222061792288	0.7790664276406709	-1.0000000099422557	-0.2505563562924267	-0.49999976531994733	5.713153743999207
88	-6.0011061376878345	-4.0769589485876185	-1.8568453644441227	0.7141442253521828	-1.0000000099443176	-0.2830174418746591	-0.49999976556925907	5.778075945635562
89	-6.014188338112202	-4.121438825052414	-1.8616609772237283	0.6492220230628181	-1.0000000099462376	-0.3154785274730774	-0.49999975610114256	5.842998147271917
90	-6.02627583426651	-4.16181733609972	-1.8665740192198155	0.5842998207724477	-1.0000000099480295	-0.3479396124568047	-0.4999997353029141	5.907920348908272
91	-6.03733299198069	-4.198104109925711	-1.8714877675991624	0.5193776184808973	-1.000000009949706	-0.38040069609026517	-0.49999969924896154	5.972842550544627
92	-6.0473199498351855	-4.2303103356016845	-1.8763033111473775	0.45445541618792545	-1.0000000099512776	-0.4128617773830236	-0.4999996399195988	6.037764752180982
93	-6.056194140284387	-4.258448375436449	-1.8809190168548093	0.38953321389318896	-1.0000000099527542	-0.44532285482398903	-0.4999995405176902	6.1026869538173365
94	-6.063911830886045	-4.2825313293742475	-1.8852299440414553	0.3246110115961784	-1.0000000099541437	-0.4777839258115636	-0.49999936159332387	6.167609155453691
95	-6.070429696243106	-4.3025725459249635	-1.8891271943610761	0.25968880929609506	-1.0000000099554542	-0.5102449851829743	-0.4999989976121302	6.232531357090046
96	-6.075706433282409	-4.318585076057603	-1.8924971837880484	0.19476660699158643	-1.000000009956692	-0.5427060209239245	-0.4999981054349081	6.297453558726401
97	-6.0797044350561436	-4.330581068578799	-1.8952208198575173	0.12984440468008848	-1.0000000099578628	-0.5751669987427649	-0.4999939716042975	6.362375760362756
98	-6.082391541471575	-4.338571107873094	-1.8971725638336099	0.06492220235577593	-1.000000009958972	-0.607627708184221	0.025871535107678065	6.427297961999111
99	-6.0837428893714645	-4.342563497643006	-1.898219352772267	0.0	0.0	-0.6059480711653182	0.0	6.492220163635466
100	-6.0837428893714645	-4.342563497643006	-1.898219352772284	-9.972034535964802e-09	-1.000000009579702	-0.7490707793003453	-0.01358238221930338	6.560633912250263
101	-6.083742889174176	-4.342563496985785	-1.890633637376799	-0.06841376048874286	-1.0000000095674122	-0.7500000009830851	-6.563348887538997e-08	6.62904766086506
102	-6.082271301536092	-4.338120416363904	-1.8890763780178774	-0.13682751030508264	-1.0000000095544022	-0.7500000054733181	-2.1811891566698243e-08	6.697461409479858
103	-6.079341968087106	-4.329229683314113	-1.8859618852217976	-0.20524125992021064	-1.0000000095406067	-0.7500000069655515	-1.0842157960341697e-08	6.765875158094655
104	-6.074989524449876	-4.3158799637258225	-1.8812901512772473	-0.2736550094393429	-1.0000000095259522	-0.7500000077073041	-6.452183739559871e-09	6.834288906709452
105	-6.069269484481912	-4.2980534209177605	-1.875061174643332	-0.3420687589019164	-1.000000009510356	-0.7500000081487224	-4.25497130219567e-09	6.90270265532425
106	-6.062258373787463	-4.275726137687242	-1.8672749548070393	-0.4104825083269364	-1.0000000094937243	-0.750000008439821	-2.9970405051738675e-09	6.971116403939047
107	-6.0540539080802835	-4.24886870272344	-1.8579314915488563	-0.47889625772498756	-1.0000000094759502	-0.7500000086448597	-2.206444388186659e-09	7.039530152553844
108	-6.044775210040689	-4.217446963264307	-1.8470307847592535	-0.5473100071025472	-1.0000000094569121	-0.750000008795811	-1.6815497272645703e-09	7.107943901168642
109	-6.034563056484297	-4.181422946246958	-1.8345728343775483	-0.6157237564638469	-1.00000000943647	-0.7500000089108521	-1.3067288011847368e-09	7.176357649783439
110	-6.023580145804192	-4.1407559504581375	-1.8205576403674497	-0.6841375058117851	-1.000000009414462	-0.7500000090002502	-1.032305066341505e-09	7.244771398398236
111	-6.01201137376026	-4.09540381230744	-1.8049852027059765	-0.7525512551484145	-1.0000000093907013	-0.7500000090708739	-8.230292378735224e-10	7.313185147013034
112	-6.000064103768723	-4.045324347794403	-1.7878555213778982	-0.8209650044752236	-1.0000000093649692	-0.7500000091271803	-6.582514506775922e-10	7.381598895627831
113	-5.987968415894348	-3.9904769729940694	-1.7691685963727553	-0.8893787537933071	-1.0000000093370092	-0.7500000091722138	-5.244619265234455e-10	7.450012644242628
114	-5.975977316773434	-3.9308245049164987	-1.7489244276831566	-0.9577925031034723	-1.0000000093065184	-0.7500000092080941	-4.12750276301584e-10	7.5184263928574255
115	-5.96436689070738	-3.866335143876002	-1.727123015303762	-1.026206252406309	-1.000000009273136	-0.7500000092363318	-3.166902042570354e-10	7.586840141472223
116	-5.953436370178833	-3.7969846375077747	-1.7037643592306455	-1.0946200017022347	-1.0000000092364294	-0.7500000092579978	-2.3158503299837825e-10	7.65525389008702
117	-5.9435081020738725	-3.7227586252652767	-1.6788484594608886	-1.1630337509915258	-1.0000000091958743	-0.7500000092738413	-1.5407369556509274e-10	7.7236676387018175
118	-5.934927383969	-3.6436551605943746	-1.652375315992309	-1.2314475002743355	-1.00000000915083	-0.7500000092843819	-8.042535809976312e-11	7.792081387316615
119	-5.928062142990592	-3.5596874059840586	-1.6243449288232772	-1.2998612495507036	-1.0000000091005057	-0.7500000092898842	-8.416641886606476e-12	7.860495135931412
120	-5.923302428013188	-3.4708864937146933	-1.5947572979525961	-1.3682749988205616	-1.000000009043912	-0.7500000092904601	6.386593146760774e-11	7.9289088845462095
121	-5.921059684374007	-3.377304542341924	-1.5636124233794138	-1.4366887480837283	-1.0000000089797958	-0.7500000092860908	1.3872897182423702e-10	7.997322633161007
122	-5.921765778893766	-3.2790178157498193	-1.5309103051031654	-1.5051024973398999	-1.000000008906545	-0.7500000092765999	2.1968062429305924e-10	8.065736381775803
