	x	y	theta	v	a	sigma	omega	t
0	-5.572139303	-12.71144279	0.761450646	0.00010000999910482173	1.0000000099860045	-0.2646361334422545	-0.016460337067509292	0.06564530373641521
1	-5.572134550881771	-12.711438260203103	0.7614500106040605	0.06574531447719538	1.0000000099856263	-0.26571667726865444	0.37226324017542245	0.13129060747283042
2	-5.569010566660739	-12.708460431082047	0.7610305209272962	0.13139061889353976	1.0000000099852269	-0.24127934379754465	0.4999414084572423	0.19693591120924564
3	-5.562764854455137	-12.702511922124925	0.7602725124509377	0.1970359232994985	1.0000000099848048	-0.20846053818895782	0.499974713829714	0.26258121494566083
4	-5.5533919040363005	-12.693598524805559	0.759295342050441	0.2626812277011545	1.000000009984358	-0.17563954623907907	0.4999821757387368	0.32822651868207603
5	-5.540884616860437	-12.68172771919419	0.7582024047564545	0.3283265321004449	1.000000009983884	-0.14281806444991627	0.49998375357567343	0.3938718224184912
6	-5.525235491376512	-12.666907436724973	0.7570955220227388	0.39397183649823003	1.0000000099833803	-0.10999647908316876	0.4999815325787151	0.4595171261549064
7	-5.50643782148686	-12.649144796560657	0.7560754142579371	0.45961714089496614	1.0000000099828443	-0.07717503951444132	0.49997244111560746	0.5251624298913217
8	-5.48448687432158	-12.628444849436228	0.7552421512857899	0.5252624452909235	1.0000000099822723	-0.044354196757571344	0.4999277052796484	0.5908077336277369
9	-5.45938105658013	-12.604809322003886	0.7546955865792694	0.5909077496862748	1.000000009981661	-0.011536290698262853	0.34737025955569356	0.6564530373641521
10	-5.431123080527117	-12.57823535700957	0.754535759349749	0.6565530540811365	1.000000009981006	0.011266935499173335	0.019891475475135655	0.7220983411005673
11	-5.399721142079824	-12.548714247478378	0.7547091953775263	0.7221983584755907	1.0000000099803026	0.012572717448519413	-0.08562521220833029	0.7877436448369824
12	-5.365185120595609	-12.516235486404863	0.7549220847346781	0.7878436628696963	1.000000009979545	0.0069518243856535235	-0.07288091347311809	0.8533889485733976
13	-5.3275174393021905	-12.48079649971582	0.7550504925445063	0.8534889672634971	1.000000009978727	0.002167534684154662	-0.032391381737491017	0.9190342523098128
14	-5.2867161131837745	-12.442399399499434	0.7550938646270648	0.9191342716570255	1.0000000099778406	4.119259156486755e-05	-0.006141871842195238	0.984679556046228
15	-5.242778384782354	-12.401047116580072	0.7550947522809541	0.9847795760503062	1.000000009976877	-0.0003619924510288192	0.002478533192326446	1.0503248597826433
16	-5.195702628026107	-12.35674137877369	0.755086394630745	1.0504248804433571	1.000000009975826	-0.00019928838680336245	0.0024365904314596065	1.1159701635190586
17	-5.145488411234255	-12.309482644752476	0.7550814867655404	1.1160701848361914	1.0000000099746749	-3.933766785281525e-05	0.0008409924963298809	1.181615467255474
18	-5.092135858262942	-12.259270782918355	0.7550804574566014	1.1817154892288182	1.0000000099734085	1.586954000729883e-05	2.7454470684465516e-05	1.2472607709918893
19	-5.035645146327563	-12.206105604972446	0.75508089712262	1.2473607936212425	1.000000009972009	1.767179707421459e-05	-0.00015301244573982738	1.3129060747283046
20	-4.976016351785044	-12.149987029781716	0.7550814139177809	1.313006098013467	1.000000009970454	7.627248598574744e-06	-6.838060899892321e-05	1.3785513784647199
21	-4.913249481788574	-12.090915049745593	0.7550816487081506	1.3786514024054906	1.000000009968716	3.1383827515709782e-06	-3.1666641041434146e-05	1.4441966822011352
22	-4.847344521899303	-12.028889680206097	0.755081750147397	1.4442967067973087	1.0000000099667608	1.0596164823579443e-06	-1.801693400190724e-05	1.5098419859375505
23	-4.778301464839101	-11.963910928896617	0.7550817860272601	1.509942011188914	1.0000000099645447	-1.2311062247566594e-07	-8.877364271450867e-06	1.5754872896739658
24	-4.706120306753568	-11.89597879991266	0.7550817816691189	1.5755873155802953	1.0000000099620123	-7.05867896426216e-07	-1.3815669918786188e-05	1.641132593410381
25	-4.630801045002356	-11.825093296059746	0.7550817555948871	1.6412326199714367	1.0000000099590902	-1.6128017445887769e-06	-7.888016169041419e-07	1.7067778971467964
26	-4.552343677956241	-11.751254419069022	0.7550816935370336	1.706877924362317	1.000000009955681	-1.6645828663589093e-06	-2.3207857842377155e-06	1.7724232008832117
27	-4.47074820269796	-11.674462172040252	0.7550816269248747	1.7725232287529078	1.000000009951652	-1.8169315541202425e-06	-4.852121495164327e-06	1.838068504619627
28	-4.386014618497782	-11.594716555748837	0.7550815514198017	1.8381685331431719	1.0000000099468171	-2.1354505434824903e-06	2.7136299721546185e-05	1.9037138083560423
29	-4.298142924226824	-11.512017571394303	0.7550814593916976	1.9038138375330593	1.000000009940908	-3.540799060166837e-07	-7.701257075614182e-06	1.9693591120924576
30	-4.20713311802388	-11.426365220954304	0.7550814435875385	1.9694591419225018	1.0000000099335216	-8.596312659480228e-07	-8.997626185731135e-06	2.035004415828873
31	-4.112985206099263	-11.33775949783013	0.7550814038953714	2.0351044463114043	1.0000000099240245	-1.4502831698652545e-06	-6.66683672153239e-06	2.100649719565288
32	-4.015699186172482	-11.24620040444496	0.7550813346987097	2.10074975069963	1.000000009911362	-1.8879296914315582e-06	6.618552514962259e-05	2.166295023301703
33	-3.915275055220576	-11.151687944010904	0.7550812417152355	2.166395055086973	1.0000000098936344	2.456839209982668e-06	-3.2852189953827024e-05	2.231940327038118
34	-3.8117128105164593	-11.054222119425713	0.7550813664995567	2.232040359473102	1.000000009867043	3.0024722201341434e-07	-7.468852870010609e-05	2.2975856307745333
35	-3.705012473379029	-10.953802908037128	0.7550813822113829	2.297685663857436	1.000000009822724	-4.602703930173023e-06	0.00011427781179905852	2.3632309345109483
36	-3.5951740332703355	-10.850430321042406	0.755081134269848	2.363330968238812	1.0000000097340858	2.899097735787879e-06	4.26155940970291e-06	2.4288762382473634
37	-3.4821974622501317	-10.744104388129722	0.7550812949022055	2.4289762726143214	1.00000000946817	3.1788490976347174e-06	-9.449489296713485e-05	2.4945215419837785
38	-3.3660828035028474	-10.634825063414052	0.7550814759273136	2.4946215769723272	0.08193195379755591	-3.0242968528198093e-06	-4.4283145988918446e-05	2.5601668457201936
39	-3.246830060266871	-10.522592343456132	0.7550812990489454	2.500000024965088	-1.1448884227936364e-15	-5.9312774216410096e-06	0.0002797265676756186	2.6258121494566087
40	-3.1273201861248467	-10.410117668918863	0.7550809514056313	2.5000000249650878	-5.176137657914898e-15	1.2431458076756643e-05	-0.0002002370531518936	2.6914574531930238
41	-3.007810272881761	-10.297643035928408	0.755081680036747	2.5000000249650878	-1.2383230764771052e-15	-7.131640968698949e-07	-0.00030963718160518296	2.757102756929439
42	-2.888300441591225	-10.18516831585934	0.7550816382368593	2.5000000249650878	-1.444933656303325e-16	-2.103939093155841e-05	0.0006891187056748277	2.822748060665854
43	-2.7687906055992584	-10.072693600785772	0.7550804050786251	2.5000000249650878	5.65392469519324e-16	2.419801581337484e-05	-0.00026496846159328153	2.888393364402269
44	-2.64928063090826	-9.960219033086824	0.7550818233697986	2.5000000249650878	5.617315297503968e-16	6.804080671252084e-06	-0.000739232576040613	2.954038668138684
45	-2.52977081573907	-9.84774429588805	0.7550822221697512	2.5000000249650878	-1.492406704541069e-16	-4.172306631520351e-05	0.0011127876581812095	3.019683971875099
46	-2.4102610454248103	-9.735269511028779	0.7550797767024383	2.5000000249650878	-1.0442844159835901e-15	3.1326217501020935e-05	-9.068245920287353e-05	3.0853292756115143
47	-2.290751000057493	-9.622795018427073	0.7550816127909065	2.5000000249650878	-6.562623679797364e-16	2.5373339922921465e-05	-0.0013113114077490029	3.1509745793479293
48	-2.1712411612035005	-9.510320306394547	0.7550830999700343	2.5000000249650878	2.2251791481991873e-16	-6.07080957326641e-05	0.0011338721457123326	3.2166198830843444
49	-2.0517314896196845	-9.397845416629606	0.755079541754473	2.5000000249650878	1.2452995169885283e-15	1.3725285671814095e-05	0.0008580006755784113	3.2822651868207595
50	-1.932221417826715	-9.285370952106545	0.7550803462192553	2.5000000249650878	-4.3333974482410826e-15	7.004900062666528e-05	-0.002107836669963813	3.3479104905571746
51	-1.8127114365155346	-9.17289639144188	0.7550844519228056	2.5000000249650878	-2.7704537013159296e-15	-6.832057780147069e-05	0.0001583564546586656	3.4135557942935897
52	-1.6932019169925638	-9.06042134010561	0.7550804475253651	2.5000000249650878	-1.489014187295688e-15	-5.7925220236238336e-05	0.0033088861467444695	3.4792010980300048
53	-1.5736919470757407	-8.947946767333852	0.7550770524193662	2.5000000249650878	-2.0611853025544475e-15	0.00015928761589809254	-0.003196228853634441	3.54484640176642
54	-1.4541815952964987	-8.835472600311748	0.7550863885659004	2.5000000249650878	-1.5743616441777635e-15	-5.0529798012500295e-05	-0.002398284827376994	3.610491705502835
55	-1.334672293597772	-8.72299731752839	0.7550834269194943	2.5000000249650878	-6.731858601642986e-16	-0.00020796593395296914	0.007515694693991513	3.67613700923925
56	-1.2151626587875668	-8.610522388689832	0.7550712376451812	2.5000000249650878	-2.13588896043283e-15	0.00028540412702923767	-0.004001670329927897	3.741782312975665
57	-1.0956516529983993	-8.498048916595277	0.7550879657177563	2.5000000249650878	-2.2226243458112604e-15	2.271326276460225e-05	-0.006548787128148106	3.80742761671208
58	-0.9761425286904034	-8.385573445327726	0.7550892969847632	2.5000000249650878	-3.4485730807918793e-16	-0.0004071838573716473	0.011429393169099696	3.8730729204484953
59	-0.8566335541174108	-8.273097814961732	0.7550654311725389	2.5000000249650878	-1.655735866101314e-15	0.00034310212874473175	-0.0030157196880913	3.9387182241849104
60	-0.7371218952559878	-8.160625036806335	0.7550855410337257	2.5000000249650878	-0.08345544434155173	0.00014513429383406187	-0.007346994802046483	4.004363527921326
61	-0.617612498230887	-8.048149855311001	0.755094047627441	2.49452156697283	-1.0000000094681643	-0.0003371614115028877	0.002613143816933443	4.070008831657741
62	-0.4983659467758625	-7.935920135649849	0.7550743292682897	2.4288762626148275	-1.0000000097340866	-0.00016562079192929295	0.012268762464145168	4.135654135394157
63	-0.38225530773582195	-7.826646119152435	0.7550648980915795	2.3632309582393205	-1.0000000098227244	0.000639765846507482	-0.010050939558365097	4.2012994391305725
64	-0.269281791350271	-7.720326519919759	0.7551003445546318	2.2975856538579476	-1.0000000098670432	-2.0031133647226988e-05	-0.016858588785261006	4.266944742866988
65	-0.15945009223471598	-7.61695634967698	0.7550992655510871	2.2319403494736165	-1.0000000098936346	-0.0011267183150301032	0.031997812559924635	4.3325900466034035
66	-0.05275633331502768	-7.516539727992275	0.7550403074146422	2.166295045087491	-1.0000000099113622	0.0009737878093849967	-0.008399188239119984	4.398235350339819
67	0.05080511994105072	-7.419082641976937	0.7550897644072889	2.1006497407001508	-1.0000000099240247	0.00042242054628446147	-0.008999243731254786	4.463880654076235
68	0.151223673342063	-7.324573834477349	0.7551105682870286	2.035004436311928	-1.0000000099335216	-0.00016833754186819225	-0.06138968717216371	4.52952595781265
69	0.24850224222128442	-7.233016403419982	0.7551025368739224	1.9693591319230288	-1.000000009940908	-0.0041982822025673425	-0.054242167898551664	4.595171261549066
70	0.3426435043623838	-7.144413193964344	0.7549086962834057	1.9037138275335894	-1.0000000099468171	-0.007759025789528767	0.34135667039859097	4.660816565285481
71	0.43366332512821093	-7.058781066546991	0.754562387821771	1.8380685231437053	-1.000000009951652	0.014649436521177572	0.49998892518717625	4.726461869021897
72	0.5215731586571427	-6.9761322100692995	0.7551937220149436	1.7724232187534443	-1.000000009955681	0.04747136137993272	0.4999940689652562	4.792107172758312
73	0.6062930228680837	-6.89638159603236	0.7571678310907337	1.7067779143628568	-1.0000000099590902	0.08029362390356316	-0.10429603349260128	4.857752476494728
74	0.6877233500276163	-6.819423806242897	0.7603877016501986	1.6411326099719798	-1.0000000099620123	0.07344707910645133	-0.499998776608997	4.923397780231143
75	0.7657830724793129	-6.7451742047834555	0.7632187399812018	1.5754873055808418	-1.0000000099645447	0.0406245075481196	-0.4999996084832269	4.989043083967559
76	0.8405183106709232	-6.6736827228467	0.7647201097031636	1.5098420011894642	-1.0000000099667608	0.007801881381151893	-0.49999981255803133	5.054688387703974
77	0.9120366370738304	-6.605062599908802	0.7649962852917225	1.4441966967978623	-1.0000000099687159	-0.025020758182368024	-0.49999989152991214	5.12033369144039
78	0.9804273411786705	-6.539407070229954	0.7641489348010488	1.378551392406048	-1.0000000099704536	-0.057843402930020896	-0.49999992957798145	5.185978995176805
79	1.0457624579342086	-6.476791222066304	0.7622773600920207	1.3129060880140282	-1.0000000099720083	-0.09066605017535083	-0.499999950487293	5.251624298913221
80	1.1080978793606124	-6.417273642048974	0.7594789182087398	1.247260783621808	-1.0000000099734077	-0.12348869879327898	-0.49999996303504474	5.317269602649636
81	1.1674745262951896	-6.360897882163956	0.7558494283535075	1.1816154792293874	-1.0000000099746738	-0.15631134823490828	-0.49999997098894977	5.382914906386052
82	1.2239195616427851	-6.30769378333537	0.7514835695144657	1.115970174836765	-1.0000000099758246	-0.18913399819867435	-0.4999999761889076	5.4485602101224675
83	1.2774476299943136	-6.257678686361353	0.7464752737920677	1.050324870443935	-1.0000000099768753	-0.22195664850379349	-0.49999997959768877	5.514205513858883
84	1.3280621112926871	-6.210858557951206	0.7409181205114177	0.9846795660508885	-1.0000000099778386	-0.25477929903268337	-0.49999998175915894	5.5798508175952986
85	1.3757563785316798	-6.167229056875349	0.7349057363636137	0.9190342616576126	-1.0000000099787247	-0.28760194970346387	-0.49999998296975573	5.645496121331714
86	1.4205150514071503	-6.126776562766422	0.7285322071093386	0.8533889572640893	-1.0000000099795425	-0.32042460045371457	-0.49999998336433094	5.71114142506813
87	1.4623152395191976	-6.089479187897885	0.7218925068202962	0.7877436528702938	-1.0000000099803001	-0.3532472512298674	-0.49999998299480386	5.776786728804545
88	1.501127770251731	-6.055307790312028	0.7150829512516379	0.7220983484761939	-1.0000000099810034	-0.38606990198176266	-0.4999999818116066	5.842432032540961
89	1.5369183979264134	-6.024227004969604	0.7082016827629344	0.6564530440817459	-1.0000000099816584	-0.4188925526559868	-0.4999999796561362	5.908077336277376
90	1.5696489923294357	-5.996196308147063	0.7013491952791049	0.5908077396868908	-1.0000000099822697	-0.4517152031887146	-0.49999997621182	5.973722640013792
91	1.5992787063292802	-5.971171129115327	0.6946289091623657	0.525162435291547	-1.0000000099828417	-0.48453785349533945	-0.4999999708930163	6.039367943750207
92	1.625765124132285	-5.949104022198782	0.6881478076270954	0.459517130895598	-1.000000009983378	-0.51736050345281	-0.49999996258925383	6.105013247486623
93	1.6490653938597102	-5.929945911639074	0.6820171485714185	0.3938718264988713	-1.0000000099838817	-0.5501831528651777	-0.4999999490597511	6.170658551223038
94	1.6691373506894756	-5.913647421280492	0.676353268555456	0.32822652210109715	-1.000000009984356	-0.5830058013893973	-0.4999999253067006	6.236303854959454
95	1.6859406399249939	-5.90016030095636	0.6712784993049385	0.26258121770181997	-1.0000000099848032	-0.6158284483543408	-0.49999987800086787	6.301949158695869
96	1.6994378532028016	-5.889438961590451	0.6669222218007386	0.1969359133001808	-1.0000000099852258	-0.6486510922138785	-0.49999976099912624	6.367594462432285
97	1.7095956958469996	-5.881442131427937	0.6634220890567739	0.13129060889424538	-1.0000000099856254	-0.6814737283928014	-0.49999928723503934	6.4332397661687
98	1.7163862094037454	-5.876134646457839	0.660925456538414	0.06564530447794065	-1.0000000099860042	-0.714296333471337	0.03040480440247393	6.498885069905116
99	1.7197880810152932	-5.87348938894157	0.6595910694538806	0.0	0.0	-0.7123004008512905	0.0	6.5645303736415315
100	1.7197880810152932	-5.87348938894157	0.6595910694538824	-9.999054729871482e-09	-1.0000000099876705	0.7490770511736806	0.011652811585439354	6.643735171057079
101	1.7197880803888415	-5.873489389426437	0.6595910691832738	-0.0792048082183599	-1.0000000099872488	0.7500000097546254	1.540764024797968e-09	6.722939968472627
102	1.7148305700321214	-5.877333690211803	0.6575038270039129	-0.15840960643356708	-1.0000000099867983	0.7500000098766614	5.10827708623821e-10	6.802144765888174
103	1.7048995235823354	-5.8850015795163655	0.6533293429155179	-0.23761440464658898	-1.0000000099863158	0.7500000099171213	2.532124597654587e-10	6.881349563303722
104	1.6899550699352581	-5.896441127702913	0.6470676169182608	-0.31681920285824083	-1.0000000099857975	0.750000009937177	1.500663517858547e-10	6.96055436071927
105	1.6699340147915704	-5.911568789486446	0.6387186490122534	-0.3960240010689441	-1.0000000099852397	0.7500000099490629	9.83841435317118e-11	7.039759158134817
106	1.6447506946300727	-5.930268766046892	0.628282439197559	-0.4752287992789439	-1.0000000099846376	0.7500000099568555	6.872461427324186e-11	7.118963955550365
107	1.6142981722430776	-5.952392139447721	0.6157589874742047	-0.5544335974883945	-1.0000000099839856	0.7500000099622988	5.007706464905705e-11	7.198168752965913
108	1.5784497861924605	-5.977755796826035	0.6011482938421914	-0.6336383956973983	-1.000000009983277	0.750000009966265	3.74855532405945e-11	7.27737355038146
109	1.5370610694387252	-6.00614116711114	0.5844503583015037	-0.7128431939060259	-1.0000000099825046	0.7500000099692341	2.8518021989479375e-11	7.356578347797008
110	1.48997205485837	-6.0372927985985685	0.5656651808521174	-0.7920479921143273	-1.000000009981659	0.7500000099714929	2.1819441916240573e-11	7.435783145212556
111	1.4370099872889537	-6.0709168115954135	0.5447927614940048	-0.871252790322338	-1.0000000099807296	0.750000009973221	1.6595525277725795e-11	7.514987942628103
112	1.3779924630117153	-6.10667926658965	0.5218331002271384	-0.9504575885300833	-1.0000000099797026	0.7500000099745355	1.2350766327389531e-11	7.594192740043651
113	1.3127310180760108	-6.144204494993354	0.4967861970514928	-1.0296623867375805	-1.0000000099785622	0.7500000099755137	8.750881172856e-12	7.6733975374591985
114	1.2410351864583558	-6.183073446462909	0.4696520519670467	-1.1088671849448406	-1.0000000099772883	0.7500000099762069	5.565634420477822e-12	7.752602334874746
115	1.1627170475945172	-6.222822114081635	0.44043066497378286	-1.1880719831518693	-1.0000000099758564	0.7500000099766477	2.6123953583608922e-12	7.831807132290294
116	1.0775962801829055	-6.262940106251148	0.4091220360716894	-1.2672767813586676	-1.000000009974234	0.7500000099768546	-2.541393794868368e-13	7.911011929705841
117	0.9855057351841967	-6.302869441898207	0.37572616526075947	-1.3464815795652312	-1.0000000099723814	0.7500000099768345	-3.183214954849891e-12	7.990216727121389
118	0.8862975354865467	-6.342003653453703	0.3402430525409921	-1.4256863777715512	-1.0000000099702449	0.7500000099765823	-6.304950047635101e-12	8.069421524536937
119	0.7798497026204578	-6.3796872898546635	0.30267269791239243	-1.5048911759776125	-1.0000000099677537	0.750000009976083	-9.792530537516246e-12	8.148626321952484
120	0.6660733020506463	-6.415215919375855	0.26301510137497264	-1.5840959741833938	-1.0000000099648114	0.7500000099753074	-1.3861991920455146e-11	8.227831119368032
121	0.5449200878138029	-6.447836739190335	0.2212702629287531	-1.6633007723888649	-1.000000009961282	0.7500000099742093	-1.879801872580909e-11	8.30703591678358
122	0.41639061449828574	-6.476749904920735	0.17743818257376442	-1.7425055705939838	-1.0000000099569706	0.7500000099727205	-2.500649403133307e-11	8.386240714199127
123	0.2805427696872889	-6.501110698761931	0.13151886031005022	-1.8217103687986926	-1.0000000099515831	0.7500000099707399	-3.3116851670509175e-11	8.465445511614675
