	x	y	theta	v	a	sigma	omega	t
0	-0.547263681592035	15.1990049751244	-1.78946527266884	0.00010000999876798257	1.000000009977873	-0.6709428328493204	0.0512267786280852	0.057694750826753655
1	-0.5472649332923792	15.19899934247186	-1.7894669084578705	0.058494703148401966	1.000000009977042	-0.6679873166207156	0.4999992215097211	0.11538950165350731
2	-0.5479970436872769	15.195704871142178	-1.7904178694052775	0.11618945458540073	1.0000000099761466	-0.6391399861221414	0.49999973856289376	0.17308425248026096
3	-0.5494574747325571	15.18916236829902	-1.792197194533388	0.1738842060047027	1.0000000099755477	-0.6102926257923131	0.4999998681291637	0.23077900330701462
4	-0.5516605121621275	15.1793750406713	-1.7947029333123286	0.23157895741974788	1.0000000099749184	-0.5814452579871908	0.49999992062142956	0.2884737541337683
5	-0.5546271695161376	15.16634767208379	-1.7978390970808888	0.28927370883216097	1.0000000099742563	-0.5525978871535402	0.499999947191235	0.346168504960522
6	-0.5583839456114211	15.150086413456968	-1.8015148885623817	0.34696846024277705	1.0000000099735584	-0.523750514786951	0.49999996253383283	0.40386325578727567
7	-0.5629616630759218	15.130598591860263	-1.8056440305509784	0.40466321165208124	1.0000000099728221	-0.4949031415351741	0.49999997219484965	0.46155800661402935
8	-0.5683943770400341	15.10789252715965	-1.8101441772883646	0.46235796306037985	1.0000000099720439	-0.46605576772600704	0.49999997865553497	0.519252757440783
9	-0.5747183445263073	15.08197734750961	-1.8149363950117896	0.520052714467878	1.00000000997122	-0.437208393544092	0.49999998316431177	0.5769475082675367
10	-0.5819710462768257	15.052862797149725	-1.8199447005064842	0.5777474658747195	1.0000000099703465	-0.4083610191020439	0.499999986405445	0.6346422590942904
11	-0.5901902537303468	15.020559031782865	-1.825095648374074	0.6354422172810084	1.0000000099694184	-0.3795136444729991	0.4999999887788089	0.6923370099210441
12	-0.599413134632531	14.985076398326095	-1.8303179592363308	0.6931369686868222	1.0000000099684305	-0.35066626970702347	0.4999999905294552	0.7500317607477978
13	-0.6096753913537135	14.94642519710679	-1.8355421823084102	0.7508317200922195	1.000000009967377	-0.32181889484004444	0.49999999181239846	0.8077265115745514
14	-0.6210104264187831	14.90461542568019	-1.84070038675744	0.8085264714972458	1.0000000099662507	-0.29297151989904613	0.4999999927245858	0.8654212624013051
15	-0.6334485300397925	14.859656504414563	-1.8457258770571705	0.8662212229019358	1.0000000099650441	-0.2641241449054192	0.4999999933333044	0.9231160132280588
16	-0.6470160845989698	14.811556984862444	-1.8505529281931306	0.923915974306317	1.000000009963748	-0.23527676987667231	0.499999993674111	0.9808107640548125
17	-0.661734781071174	14.760324242741358	-1.855116537093251	0.9816107257104103	1.000000009962352	-0.2064293948282626	0.49999999375928117	1.038505514881566
18	-0.6776208423124984	14.705964158111472	-1.8593521870779672	1.0393054771142318	1.0000000099608444	-0.17758201977493904	0.499999993582921	1.0962002657083196
19	-0.6946842479865415	14.648480786084425	-1.863195622458288	1.0970002285177938	1.0000000099592108	-0.14873464473179052	0.4999999931135792	1.1538950165350732
20	-0.7129279556619694	14.587876022150104	-1.8665826306734736	1.1546949799211041	1.0000000099574349	-0.11988726971572067	0.499999992284785	1.2115897673618268
21	-0.732347112304058	14.524149266987964	-1.869448829561991	1.2123897313241685	1.000000009955497	-0.09103989474746806	0.49999999097070863	1.2692845181885803
22	-0.7529282500086192	14.457297096460044	-1.871729457508051	1.2700844827269884	1.0000000099533741	-0.06219251985503097	0.49999998892291464	1.326979269015334
23	-0.7746484593991481	14.387312943387498	-1.873359164307106	1.3277792341295636	1.0000000099510382	-0.03334514508074114	0.49999998564994597	1.3846740198420875
24	-0.7974745336381764	14.314186798717861	-1.8742718006512888	1.3854739855318898	1.0000000099484554	-0.004497770495284779	0.49999997997915335	1.442368770668841
25	-0.8213620755042029	14.237904940824993	-1.874400204152554	1.4431687369339607	1.0000000099455846	0.024349603762996174	0.4999999683702819	1.5000635214955946
26	-0.846254559471041	14.158449702980372	-1.8736759797989704	1.5008634883357663	1.000000009942374	0.05319697735150566	0.4999999331428854	1.5577582723223482
27	-0.8720823402150489	14.07579929052987	-1.872029272679688	1.5585582397372928	1.0000000099387603	0.08204434890757865	-0.05409510536710139	1.6154530231491018
28	-0.8987615984901387	13.989927661046554	-1.8693885307308498	1.6162529911385217	1.0000000099346629	0.07892334528247676	-0.4999999446193921	1.6731477739758553
29	-0.9261932148806515	13.90080448275561	-1.8667546498170748	1.67394774253943	1.0000000099299795	0.05007597306426944	-0.499999979837589	1.730842524802609
30	-0.9543608294402756	13.808425398709712	-1.8650259770545816	1.7316424939399877	1.0000000099245745	0.021228598814156018	-0.49999999145248064	1.7885372756293625
31	-0.9833340361946588	13.712812123268566	-1.8642684065093094	1.7893372453401566	1.0000000099182682	-0.007618776106076858	-0.4999999971592728	1.846232026456116
32	-1.0131977146276736	13.613990558768915	-1.8645493144957888	1.8470319967398883	1.0000000099108144	-0.03646615135556304	-0.5000000005089087	1.9039267772828696
33	-1.0440529604737294	13.511991290480392	-1.865937780289718	1.9047267481391188	1.000000009901869	-0.06531352679830718	-0.5000000026753675	1.9616215281096232
34	-1.076018030708054	13.406850206603314	-1.8685048179977704	1.9624214995377651	1.0000000098909356	-0.09416090236604639	-0.5000000041693897	2.019316278936377
35	-1.1092293003217533	13.298609265230347	-1.8723236219427033	2.020116250935714	1.0000000098772683	-0.12300827801998482	-0.5000000052447743	2.077011029763131
36	-1.143842226844763	13.187317432649028	-1.877469828104002	2.0778110023328096	1.0000000098596964	-0.1518556537359695	-0.5000000060445434	2.1347057805898846
37	-1.1800323164573085	13.073031820093588	-1.884021794402472	2.135505753728829	1.000000009836268	-0.18070302949809905	-0.5000000066521988	2.1924005314166384
38	-1.2179960827936074	12.955819049079329	-1.8920609029237265	2.193200505123435	1.0000000098034703	-0.2095504052952897	-0.5000000071213929	2.250095282243392
39	-1.2579519860487238	12.835756878781261	-1.9016718875472989	2.2508952565160887	1.0000000097542776	-0.23839778111955315	-0.5000000074875444	2.307790033070146
40	-1.300141335578896	12.712936132551004	-1.9129431908957586	2.308590007905845	1.0000000096722972	-0.26724515696494444	-0.5000000077748044	2.3654847838968998
41	-1.3448291336291454	12.587462964587306	-1.9259673550550207	2.3662847592908127	1.0000000095083514	-0.2960925328269121	-0.500000007999278	2.4231795347236535
42	-1.3923048308775323	12.459461511948556	-1.9408414511597971	2.4239795106662636	1.0000000090165497	-0.32493990870183354	-0.5000000081719884	2.4808742855504073
43	-1.442882955848521	12.32907698145146	-1.9576675537076413	2.481674262013282	0.3176331064328297	-0.3537872845867221	-0.500000008299711	2.538569036377161
44	-1.4969035695511557	12.196479225424715	-1.976553266387255	2.5000000249432524	2.2337081009822197e-14	-0.3826346604789819	-0.5000000083845494	2.596263787203915
45	-1.5538359356460834	12.063953821021219	-1.997285819461325	2.5000000249432532	2.666517525069708e-13	-0.4114820363761382	-0.5000000084269228	2.6539585380306687
46	-1.6135034594584443	11.932637166618289	-2.0197658757264776	2.500000024943269	5.683360831290829e-13	-0.4403294122757402	-0.500000008422333	2.7116532888574225
47	-1.6761076644783872	11.8026949077673	-2.0440380066973196	2.5000000249433016	9.344225337367457e-13	-0.46917678817507724	-0.5000000083564716	2.7693480396841763
48	-1.7418470950451532	11.674310312156175	-2.070151614743724	2.5000000249433554	1.3777846923650528e-12	-0.49802416407061295	-0.5000000081937716	2.82704279051093
49	-1.8109163163413198	11.547685986724543	-2.0981613726705675	2.500000024943435	1.9010708879853395e-12	-0.5268715399567587	-0.5000000078382636	2.884737541337684
50	-1.8835046983599864	11.423045688596748	-2.128127729398946	2.5000000249435446	-4.0629796690013733e-10	-0.5557189158223883	-0.5000000069449558	2.9424322921644377
51	-1.9597949479328263	11.300636232501287	-2.1601174925644617	2.5000000249201033	4.555137461777248e-12	-0.5845662916364711	-0.5000000042903086	3.0001270429911915
52	-2.0399613468793745	11.180729495405695	-2.194204501105108	2.500000024920366	1.098648548117703e-10	-0.6134136672973861	-0.46220836257320946	3.0578217938179453
53	-2.124167647200503	11.063624516403092	-2.230470403708626	2.5000000249267047	3.336353739405652e-10	-0.6400806636060892	0.5000000046873624	3.115516544644699
54	-2.2125645657556894	10.949649686238521	-2.268830675925009	2.5000000249459537	-1.5525047054320825e-13	-0.6112332879222655	0.5000000068030648	3.173211295471453
55	-2.305267487114207	10.839148801657833	-2.30492884881566	2.500000024945945	2.0243971616081223e-13	-0.5823859121163698	0.5000000074075653	3.2309060462982067
56	-2.40189802924744	10.732065584258661	-2.338854591164159	2.5000000249459564	-0.3597845365501812	-0.5535385362755936	0.5000000076035264	3.2886007971249605
57	-2.502105148766272	10.628321619040134	-2.370688931509298	2.479242345758375	-1.0000000090638266	-0.5246911604235095	0.5000000075985042	3.3462955479517142
58	-2.604704536671887	10.528654181098648	-2.400257585370819	2.4215475944086258	-1.0000000095321047	-0.49584378457171535	0.5000000074477334	3.403990298778468
59	-2.7077505488490012	10.43431136496204	-2.4272475778148	2.3638528430317987	-1.000000009688207	-0.46699640872862125	0.5000000071487124	3.461685049605222
60	-2.810790137878611	10.344964479451018	-2.451805722323862	2.306158091645904	-1.0000000097662636	-0.4381490329027814	0.5000000066534595	3.5193798004319756
61	-2.9134249440294027	10.260293026302513	-2.4740693881867366	2.2484633402554444	-1.0000000098131	-0.409301657105518	0.5000000058423274	3.5770745512587294
62	-3.015305049460771	10.17998799307606	-2.4941674799299087	2.1907685888622197	-1.0000000098443254	-0.38045428135505593	0.5000000044203536	3.634769302085483
63	-3.1161233586940558	10.103754280860006	-2.5122213017381103	2.13307383746713	-1.0000000098666288	-0.35160690568663777	0.5000000014909993	3.692464052912237
64	-3.2156105722996053	10.03131243471444	-2.52834532347214	2.075379086070688	-1.0000000098833561	-0.3227595301872315	0.4999999925529681	3.750158803738991
65	-3.3135307141279746	9.962399814420637	-2.542647862236578	2.0176843346732145	-1.000000009896365	-0.2939121552035061	0.3245986815682583	3.8078535545657446
66	-3.4096771690860157	9.8967713178942	-2.555231691283367	1.9599895832749212	-1.0000000099067687	-0.2751845151517327	-0.49999999139675727	3.8655483053924984
67	-3.5038691874161536	9.834199748755383	-2.5666346220609983	1.9022948318759567	-1.000000009915269	-0.3040318900687506	-0.5000000004371122	3.923243056219252
68	-3.5959750836592335	9.774516426448848	-2.5789331452893847	1.8446000804764284	-1.000000009922345	-0.3328792655073524	-0.5000000034028858	3.980937807046006
69	-3.685992480124304	9.717746001058195	-2.592074391625979	1.7869053290764159	-1.0000000099283268	-0.3617266411170665	-0.5000000048435959	4.038632557872759
70	-3.7739094938907085	9.663901877745673	-2.6060060467277877	1.7292105776759787	-1.000000009933451	-0.39057401680990433	-0.5000000056672482	4.096327308699513
71	-3.8597055226713786	9.612986548931186	-2.620676195948754	1.6715158262751626	-1.0000000099378894	-0.4194213925502646	-0.500000006174231	4.154022059526266
72	-3.9433520489858176	9.564991898034572	-2.6360331652891356	1.613821074874003	-1.0000000099417716	-0.44826876831987694	-0.5000000064902823	4.211716810353019
73	-4.024813457395176	9.51989948499337	-2.652025356679462	1.5561263234725273	-1.0000000099451964	-0.47711614410772507	-0.5000000066744249	4.269411561179773
74	-4.104047859781562	9.477680822940231	-2.6686010754565146	1.4984315720707564	-1.0000000099482407	-0.5059635199061981	-0.5000000067536228	4.327106312006526
75	-4.1810079237935645	9.438297654632683	-2.6857083476065133	1.4407368206687057	-1.0000000099509645	-0.534810895709241	-0.5000000067352509	4.384801062833279
76	-4.255641699650076	9.401702236475813	-2.7032947239923963	1.3830420692663872	-1.0000000099534168	-0.5636582715112237	-0.5000000066093396	4.442495813660033
77	-4.327893440512133	9.367837637268082	-2.7213070683291605	1.3253473178638073	-1.0000000099556363	-0.5925056473059415	-0.5000000063421758	4.500190564486786
78	-4.397704411612192	9.336638058136229	-2.7396913251000554	1.2676525664609706	-1.0000000099576554	-0.6213530230852439	-0.5000000058545554	4.5578853153135395
79	-4.465013683284623	9.308029179512225	-2.7583922628859976	1.2099578150578771	-1.0000000099595001	-0.6502003988364115	-0.5000000049513329	4.615580066140293
80	-4.529758902980585	9.281928540451196	-2.7773531876700646	1.1522630636545241	-1.0000000099611928	-0.6790477745354654	-0.5000000030366428	4.673274816967046
81	-4.591877041283836	9.258245955104444	-2.7965156195240515	1.094568312250905	-1.000000009962752	-0.7078951501240488	-0.4999999971180872	4.7309695677937995
82	-4.651305106878516	9.23688397075942	-2.815818924612069	1.036873560847009	-1.0000000099641932	-0.7367425253711588	-0.229786657772295	4.788664318620553
83	-4.7079808253616875	9.21773837155666	-2.8351998925563735	0.9791788094428212	-1.0000000099655284	-0.7500000093346438	-7.226673317422541e-10	4.846359069447306
84	-4.761843276747233	9.200698731815466	-2.8539960084724587	0.9214840580383216	-1.0000000099667674	-0.7500000093763379	-4.817909861580197e-10	4.90405382027406
85	-4.812824504202068	9.18561862323689	-2.8716846277564496	0.863789306633484	-1.00000000996792	-0.7500000094041348	-2.858052164975203e-10	4.961748571100813
86	-4.860856317861469	9.172330183963396	-2.888265750407692	0.8060945552282744	-1.0000000099689952	-0.7500000094206243	-1.1583125633988956e-10	5.019443321927566
87	-4.905879410111759	9.160674211306763	-2.9037393764257047	0.7483998038226485	-1.0000000099700004	-0.750000009427307	4.346999930652883e-11	5.07713807275432
88	-4.947842496836597	9.150500570959847	-2.918105505810123	0.6907050524165482	-1.0000000099709423	-0.7500000094247992	2.0757785449366716e-10	5.134832823581073
89	-4.98670150249891	9.141668547761515	-2.9313641385606632	0.633010301009896	-1.0000000099718263	-0.750000009412823	3.784991536181023e-10	5.192527574407826
90	-5.022418792287951	9.134047144161062	-2.9435152746770954	0.575315549602587	-1.000000009972658	-0.7500000093909855	5.893284874928274e-10	5.25022232523458
91	-5.054962454061868	9.127515332210516	-2.9545589141592394	0.5176207981944758	-1.0000000099734416	-0.7500000093569843	8.524450013422424e-10	5.307917076061333
92	-5.084305632373734	9.12196226456382	-2.9644950570069346	0.45992604678535226	-1.0000000099741813	-0.7500000093078028	1.2079273889500881e-09	5.365611826888086
93	-5.110425916480138	9.117287449586557	-2.973323703220042	0.4022312953748998	-1.0000000099748807	-0.7500000092381116	1.7250059932615384e-09	5.42330657771484
94	-5.133304783892603	9.113400895282828	-2.9810448527984357	0.34453654396261024	-1.0000000099755428	-0.7500000091385879	2.5383724112201464e-09	5.481001328541593
95	-5.152927100739818	9.110223226331376	-2.9876585057419938	0.2868417925475917	-1.0000000099761706	-0.7500000089921371	3.953112772567126e-09	5.538696079368346
96	-5.169280679958735	9.107685778094394	-2.993164662050585	0.22914704112805814	-1.0000000099767667	-0.7500000087640633	6.766209400037089e-09	5.5963908301951
97	-5.1823558981210605	9.105730671022435	-2.997563321724053	0.171452289699541	-1.0000000099773334	-0.7500000083736885	1.3896846484921266e-08	5.654085581021853
98	-5.1921453715240515	9.104310868430145	-3.0008544847621654	0.11375753824415986	-1.000000009977873	-0.7500000075719134	0.022218574738495853	5.7117803318486065
99	-5.198643692026237	9.103390220162007	-3.003038151164337	0.0	0.0	-0.7487181124386508	0.0	5.76947508267536
100	-5.198643692026237	9.103390220162007	-3.003038151164648	-2.0633394486606656e-10	-0.9863292149509211	0.37248779328247944	-0.004213844366142271	5.7694750824755365
101	-5.171876178012944	9.10410929726986	-3.0056062559411005	-9.258868856336793e-12	-0.9863328286046887	0.3724877932833215	-0.014785942519250948	5.769475082275713
102	-5.145102089271103	9.104828388418188	-3.0081701938910834	1.8781692927553372e-10	-0.9863385779130642	0.37248779328627607	-0.02165534726071144	5.76947508207589
103	-5.118217101242828	9.10554750940412	-3.010726210703154	3.848938763116436e-10	-0.9863467247846295	0.3724877932906033	-0.028642933991717297	5.769475081876067
104	-5.091058928157637	9.106266678558177	-3.0132725938668394	5.819724513681386e-10	-0.9863575900136478	0.3724877932963268	-0.033472503611830275	5.7694750816762435
105	-5.063431581024391	9.106985917552242	-3.015808595184332	7.790531976572178e-10	-0.9863715198074534	0.3724877933030154	-0.03643010045561931	5.76947508147642
106	-5.035119586726448	9.107705252339551	-3.01833348234164	9.761367275703247e-10	-0.9863889041180001	0.37248779331029497	-0.03840128793534407	5.769475081276597
107	-5.005897180088523	9.108424714224576	-3.0208459747441947	1.1732237314183627e-09	-0.9864102445903943	0.37248779331796844	-0.03933955379795812	5.769475081076774
108	-4.975535514721205	9.109144340997972	-3.0233440738045516	1.3703149997487161e-09	-0.9864362140431137	0.3724877933258294	-0.04127794300468813	5.76947508087695
109	-4.943809357355341	9.109864178035114	-3.0258252745563614	1.5674114575516678e-09	-0.9864676462549908	0.37248779333407767	0.00834220227577543	5.769475080677127
110	-4.910504024847843	9.110584279219344	-3.0282872344629688	1.7645141964252693e-09	-0.9865053017502575	0.3724877933324107	-0.005524203058428969	5.769475080477304
111	-4.875422962558012	9.111304707488879	-3.030727544238488	1.9616244599358754e-09	-0.9865500314878617	0.37248779333351456	-0.00867316780798629	5.769475080277481
112	-4.838396451864346	9.11202553521509	-3.0331449090986635	2.1587436616890008e-09	-0.9866031712953568	0.3724877933352477	-0.008380797927562762	5.769475080077657
113	-4.7992908254415205	9.112746843385635	-3.0355390470226555	2.3558734822187944e-09	-0.9866668932791363	0.37248779333692233	-0.008385331556479976	5.769475079877834
114	-4.758017435315665	9.1134687196631	-3.037910480232245	2.5530160360936955e-09	-0.9867439941430566	0.37248779333859794	-0.00870209147668087	5.769475079678011
115	-4.7145414403001045	9.114191255597282	-3.040260401694078	2.750173996727299e-09	-0.9868373556514012	0.3724877933403368	0.012135015230957644	5.7694750794781875
116	-4.66889173481934	9.11491454290291	-3.0425906900020476	2.9473506133745468e-09	-0.9869500569075889	0.372487793337912	0.014867245486624863	5.769475079278364
117	-4.621179865378601	9.115638668608169	-3.0449041394471217	3.1445497505647425e-09	-0.987086615688008	0.3724877933349412	0.01015802529014523	5.769475079078541
118	-4.571282027342937	9.116363709714225	-3.047203797476768	3.3417761755801357e-09	-0.9872553629876225	0.3724877933329114	0.014831960553276206	5.769475078878718
119	-4.519487808366638	9.117089738035874	-3.0494933016650445	3.53903632042793e-09	-0.987468948461691	0.37248779332994764	0.021289762621475673	5.769475078678894
120	-4.466105549005158	9.117816821357048	-3.0517768821125975	3.736339144801848e-09	-0.9877428724068901	0.37248779332569343	0.02905386084157451	5.769475078479071
121	-4.411492108456709	9.11854502179312	-3.05405948626136	3.933696705709472e-09	-0.988102329796152	0.3724877933198878	0.03679651826773807	5.769475078279248
122	-4.356058932057337	9.1192743939481	-3.056346964971171	4.1311260946875495e-09	-0.9886072327881725	0.372487793312535	0.04292093928262976	5.769475078079425
123	-4.300263827023784	9.120004982843856	-3.0586463130604864	4.328656375091389e-09	-0.9895865249906807	0.3724877933039584	0.04841498910347554	5.769475077879601
124	-4.2445886164779685	9.12073682160986	-3.0609659292037117	4.526382340718139e-09	-0.9878473501665072	0.372487793294284	0.05527008436457703	5.769475077679778
125	-4.189483039387908	9.12146992895656	-3.0633158537823473	4.723760779783439e-09	0.02247575099751578	0.3724877932832398	0.06152789422374298	5.769475077479955
