	x	y	theta	v	a	sigma	omega	t
0	1.17953879144713	5.65298514028592	2.3100788895565363	-9.999090431309851e-09	-1.0000000099731412	-0.7490022237040801	-0.02887061960015021	0.03455841618948196
1	1.1795387916809608	5.652985140029802	2.3100788896712947	-0.03455842652746004	-1.0000000099725799	-0.7499999465918628	-9.094945403276825e-07	0.06911683237896392
2	1.1803434503296615	5.652102620966298	2.310476243628784	-0.06911684303251803	-1.0000000099719946	-0.7499999780225539	-2.9959034110582164e-07	0.10367524856844587
3	1.181953468610406	5.650338222703833	2.311270951478587	-0.10367525953004303	-1.0000000099713837	-0.7499999883759213	-1.4429478555666796e-07	0.13823366475792784
4	1.1843705984228918	5.647693545515333	2.3124630132203223	-0.1382336760237972	-1.0000000099707458	-0.7499999933625191	0.38325965944119994	0.1727920809474098
5	1.1875976392948253	5.644171153678074	2.3140524288533406	-0.17279209251527636	-1.0000000099700788	-0.7367551465429248	0.4999996074159681	0.20735049713689177
6	1.1916384334083763	5.6397745808909905	2.3159870773479616	-0.2073505090052276	-1.0000000099693809	-0.7194759520152764	0.4999998210981905	0.24190891332637374
7	1.196497584203914	5.634508084484884	2.318229280639637	-0.24190892549407772	-1.0000000099686501	-0.7021967501031086	0.49999989045854953	0.2764673295158557
8	1.2021803558120028	5.628376565226027	2.320755342721937	-0.276467341982093	-1.0000000099678836	-0.6849175457939564	0.49999992407976884	0.31102574570533764
9	1.2086926324168912	5.621385542773772	2.3235425536140197	-0.31102575846945046	-1.0000000099670792	-0.6676383403229078	0.4999999435776618	0.3455841618948196
10	1.2160408362173987	5.613541093044144	2.3265691069429004	-0.3455841749562737	-1.0000000099662334	-0.6503591341780428	0.4999999561129478	0.3801425780843016
11	1.2242318492516768	5.60484978851102	2.3298140249679657	-0.38014259144265206	-1.0000000099653432	-0.6330799275999781	0.4999999647303985	0.41470099427378354
12	1.2332729389027224	5.5953186409142965	2.3332570902056893	-0.4147010079286522	-1.0000000099644053	-0.6158007207241079	0.4999999709392086	0.4492594104632655
13	1.2431716869092984	5.58495504591655	2.336878782924124	-0.44925942441432476	-1.0000000099634152	-0.5985215136336708	0.49999997556707615	0.4838178266527475
14	1.253935921714422	5.573766729312426	2.3406602238675283	-0.48381784089970903	-1.0000000099623687	-0.5812423063833019	0.4999999791019927	0.5183762428422294
15	1.2655736539905307	5.561761694449703	2.344583121649042	-0.5183762573848361	-1.0000000099612607	-0.5639630990107716	0.4999999818507738	0.5529346590317114
16	1.2780930151867258	5.5489481705687025	2.3486297243160927	-0.5529346738697302	-1.0000000099600859	-0.5466838915432478	0.49999998401457385	0.5874930752211933
17	1.2915021989489845	5.535334561808473	2.3527827746508594	-0.5874930903544112	-1.0000000099588375	-0.5294046840009465	0.4999999857295547	0.6220514914106753
18	1.3058094052688678	5.520929396664807	2.3570254688181156	-0.6220515068388948	-1.0000000099575086	-0.5121254763993782	0.49999998709049726	0.6566099076001572
19	1.3210227872199876	5.5057412777171795	2.3613414180161016	-0.6566099233231935	-1.0000000099560913	-0.4948462687507778	0.4999999881646911	0.6911683237896392
20	1.3371504001443224	5.489778831469964	2.3657146128238553	-0.6911683398073173	-1.0000000099545763	-0.47756706106505503	0.4999999890004487	0.7257267399791212
21	1.3542001531523544	5.473050658178044	2.3701293899713027	-0.7257267562912739	-1.000000009952953	-0.46028785335044986	0.49999998963253645	0.7602851561686031
22	1.3721797628019714	5.4555652815488065	2.374570401287168	-0.7602851727750694	-1.0000000099512094	-0.44300864561400083	0.49999999008570417	0.7948435723580851
23	1.3910967088211263	5.437331098231772	2.3790225846049027	-0.7948435892587076	-1.0000000099493316	-0.4257294378618911	0.49999999037698756	0.8294019885475671
24	1.4109581917384004	5.418356327024139	2.3834711364288657	-0.8294020057421911	-1.0000000099473036	-0.40845023009971526	0.49999999051719296	0.863960404737049
25	1.4317710922838756	5.398648957735564	2.3879014861823187	-0.8639604222255214	-1.0000000099451065	-0.3911710223326943	0.4999999905118155	0.898518820926531
26	1.4535419324201257	5.378216699668891	2.3922992718757894	-0.8985188387086979	-1.0000000099427182	-0.3738918145658593	0.49999999036146464	0.933077237116013
27	1.4762768378596798	5.357066929685331	2.396650317049274	-0.933077255191719	-1.0000000099401125	-0.3566126068042204	0.4999999900620025	0.967635653305495
28	1.4999815019210272	5.335206639833283	2.400940608854892	-0.9676356716745815	-1.0000000099372586	-0.33933339905293064	0.499999989604332	1.002194069494977
29	1.5246611505701353	5.312642384529377	2.4051562771581514	-1.0021940881572808	-1.0000000099341186	-0.3220541913174574	0.49999998897367576	1.0367524856844588
30	1.5503205084885292	5.289380227288964	2.4092835745461527	-1.0367525046398105	-1.0000000099306476	-0.3047749836037788	0.4999999881485625	1.0713109018739406
31	1.5769637660022884	5.265425687011005	2.4133088571399997	-1.071310921122162	-1.0000000099267905	-0.287495775918615	0.49999998709913734	1.1058693180634225
32	1.6045945466988092	5.24078368382951	2.4172185661165213	-1.105869337604325	-1.0000000099224786	-0.2702165682697179	0.4999999857846545	1.1404277342529043
33	1.6332158755499067	5.215458484550358	2.4209992098512907	-1.140427754086286	-1.0000000099176267	-0.25293736066624734	0.49999998414974844	1.1749861504423862
34	1.6628301473507523	5.189453647698638	2.4246373466009534	-1.1749861705680285	-1.0000000099121267	-0.23565815311927674	0.4999999821188459	1.209544566631868
35	1.693439095274296	5.16277196820779	2.428119567648083	-1.2095445870495325	-1.0000000099058393	-0.21837894564249094	0.49999997958765685	1.24410298282135
36	1.7250437593301597	5.135415421787852	2.431432480836343	-1.2441030035307723	-1.000000009898582	-0.20109973825317906	0.4999999764099153	1.2786613990108318
37	1.7576444545055459	5.107385109016223	2.4345626944276133	-1.2786614200117161	-1.0000000098901118	-0.1838205309736849	0.49999997237642735	1.3132198152003136
38	1.7912407383534135	5.078681199200612	2.4374968012160623	-1.3132198364923233	-1.0000000098800972	-0.1665413238335816	0.49999996717869727	1.3477782313897955
39	1.8258313777800934	5.0493028740705155	2.4402213628369323	-1.3477782529725415	-1.0000000098680732	-0.14926211687310348	0.4999999603489989	1.3823366475792773
40	1.8614143147705364	5.019248271360632	2.4427228942101067	-1.382336669452303	-1.0000000098533675	-0.13198291014864866	0.4999999511504182	1.4168950637687592
41	1.8979866307745832	4.988514428357444	2.4449878480603617	-1.4168950859315157	-1.0000000098349702	-0.11470370374208184	0.4999999383617436	1.451453479958241
42	1.9355445094619128	4.957097225488749	2.447002599457643	-1.4514535024100532	-1.0000000098112918	-0.0974244977774709	0.49999991983604364	1.4860118961477229
43	1.974083197536713	4.924991330045558	2.4487534303217666	-1.4860119188877337	-1.0000000097796766	-0.08014529245307822	0.4999998914910838	1.5205703123372047
44	2.0135969632855275	4.892190140136592	2.450226513836686	-1.5205703353642832	-1.0000000097353294	-0.06286608810824168	0.4999998446953368	1.5551287285266866
45	2.054079052513232	4.8586857289878305	2.451407898720098	-1.5551287518392625	-1.0000000096686164	-0.04558688538059113	0.4999997581646497	1.5896871447161685
46	2.0955216415025784	4.824468789713535	2.452283493295147	-1.5896871683118994	-1.000000009556903	-0.02830768564330296	0.49999956459920075	1.6242455609056503
47	2.137915786612302	4.789528580701063	2.4528390493144503	-1.6242455847806387	-1.0000000093314643	-0.011028492595328824	0.49999891173555433	1.6588039770951322
48	2.1812513701074576	4.75385287177006	2.453060145504098	-1.6588040012415506	-1.0000000086397198	0.006250677890713241	0.47196163648706774	1.693362393284614
49	2.2255170417939842	4.717427891288361	2.452932170943004	-1.6933624176785207	-0.9999999084261729	0.02256092454996777	-0.49999769067796723	1.7279208094740959
50	2.2707001560123183	4.680238274458471	2.4524605682409937	-1.7279208306522331	1.000000008672676	0.00528179626173922	-0.4999976875365056	1.7624792256635777
51	2.316787472719196	4.642267946814037	2.45234792495656	-1.6933624141118777	1.0000000093468444	-0.01199733191792322	0.1490650922948312	1.7970376418530596
52	2.3619488512470115	4.60505193835876	2.452598680884695	-1.6588039975481879	1.000000009564411	-0.006845878419137307	0.4999988616543373	1.8315960580425414
53	2.406197709282796	4.568606534795843	2.452738841772354	-1.6242455809769423	1.0000000096729733	0.010433290336187048	0.4999995470078595	1.8661544742320233
54	2.4495297174839044	4.53292648357513	2.4525296789253863	-1.589687164401908	1.000000009738158	0.02771248277624515	0.4999997485328793	1.9007128904215052
55	2.4919324629820196	4.497996712536536	2.4519858101827965	-1.5551287478245837	1.0000000097816568	0.044991682180689996	0.49999983841924595	1.935271306610987
56	2.533394819304206	4.463803729210243	2.4511216633173456	-1.5205703312457184	1.000000009812754	0.06227088469146633	0.49999988698823034	1.9698297228004689
57	2.5739068836554955	4.430335569091792	2.449951492656245	-1.4860119146657402	1.0000000098360937	0.07955008888071063	0.4999999163959563	2.0043881389899507
58	2.6134599187946543	4.3975817427595825	2.4484893955477323	-1.4514534980849163	1.0000000098542574	0.09682929408623997	0.49999993561233735	2.038946555179433
59	2.652046299060679	4.365533182047512	2.446749328547588	-1.416895081503425	1.0000000098687958	0.11410849995585742	0.4999999488765162	2.073504971368915
60	2.689659460124183	4.334182185453829	2.444745123356797	-1.3823366649213904	1.0000000098806956	0.13138770628386418	0.49999995841559425	2.108063387558397
61	2.7262938520593694	4.303522362945699	2.442490502559932	-1.3477782483389034	1.0000000098906157	0.14866691294152645	0.49999996549640574	2.142621803747879
62	2.7619448953534893	4.273548580300787	2.439999095217423	-1.3132198317560306	1.000000009899012	0.1659461198438903	0.49999997088467135	2.177180219937361
63	2.796608939491056	4.244256903111289	2.437284452365946	-1.2786614151728235	1.000000009906211	0.18322532693246393	0.49999997506518984	2.211738636126843
64	2.8302832237694773	4.2156445405620175	2.434360062481754	-1.2441029985893222	1.0000000099124513	0.20050453416550937	0.49999997835738247	2.2462970523163253
65	2.8629658400211997	4.187709789081894	2.4312393669625587	-1.2095445820055581	1.0000000099179127	0.21778374151232743	0.49999998097848997	2.2808554685058073
66	2.8946556969349517	4.160451975957449	2.42793577568459	-1.1749861654215563	1.0000000099227326	0.23506294894972635	0.49999998308015836	2.3154138846952894
67	2.9253524856851882	4.133871402987305	2.4244626826928903	-1.140427748837337	1.0000000099270177	0.25234215645975505	0.49999998477048707	2.3499723008847715
68	2.955056646594501	4.10796929024805	2.4208334820847375	-1.1058693322529167	1.0000000099308521	0.2696213640281982	0.49999998612777924	2.3845307170742536
69	2.9837693365684754	4.082747720034112	2.4170615841483736	-1.0713109156683083	1.0000000099343036	0.2869005716435465	0.4999999872093646	2.4190891332637356
70	3.011492397056345	4.058209581027088	2.4131604318219773	-1.036752499083522	1.0000000099374269	0.30417977929627193	0.4999999880573914	2.4536475494532177
71	3.038228322303835	4.034358512743345	2.409143517541137	-1.002194082498566	1.0000000099402666	0.321458986978303	0.499999988702698	2.4882059656427
72	3.0639802276767516	4.011198850302329	2.405024400546952	-0.9676356659134472	1.0000000099428596	0.33873819468263394	0.499999989167372	2.522764381832182
73	3.088751817845262	3.988735569551906	2.4008167247314045	-0.9330772493281696	1.0000000099452369	0.3560174024030224	0.4999999894665207	2.557322798021664
74	3.112547354629375	3.9669742325809003	2.396534237101859	-0.8985188327427366	1.0000000099474242	0.37329661013374804	0.4999999896094052	2.591881214211146
75	3.1353716243159035	3.9459209336428147	2.3921908069525406	-0.8639604161571496	1.0000000099494437	0.39057581786941054	0.4999999895999855	2.626439630400628
76	3.157229904266178	3.9255822455082625	2.3878004458376894	-0.8294019995714088	1.0000000099513136	0.4078550256047465	0.4999999894372355	2.66099804659011
77	3.1781279286419775	3.905965166256847	2.3833773284489075	-0.7948435829855129	1.0000000099530502	0.4251342333344571	0.49999998911499854	2.6955564627795923
78	3.1980718530845564	3.8870770665119148	2.3789358145081256	-0.7602851663994594	1.0000000099546673	0.44241344105303065	0.49999998862147144	2.7301148789690743
79	3.217068218188269	3.8689256371136653	2.374490471797739	-0.7257267498132438	1.0000000099561765	0.45969264875454763	0.49999998793822126	2.7646732951585564
80	3.2351239116161077	3.8515188372173665	2.370056100460972	-0.6911683332268603	1.0000000099575888	0.4769718564324515	0.4999999870385856	2.7992317113480385
81	3.252246128709507	3.83486484279373	2.3656477587186315	-0.656609916640301	1.000000009958913	0.4942510640792644	0.49999998588519595	2.8337901275375206
82	3.268442331448932	3.818971995497701	2.3612807901632644	-0.6220515000535557	1.000000009960157	0.5115302716862169	0.49999998442618915	2.8683485437270027
83	3.283720205625174	3.8038487518598005	2.3569708528086637	-0.5874930834666116	1.000000009961328	0.5288094792427475	0.4999999825893797	2.9029069599164847
84	3.2980876160837385	3.789503632740538	2.3527339500919404	-0.5529346668794527	1.0000000099624322	0.5460886867357998	0.49999998027310877	2.937465376105967
85	3.311552559906411	3.7759451729730436	2.3485864640473104	-0.5183762502920594	1.0000000099634754	0.5633678941488045	0.49999997733129814	2.972023792295449
86	3.3241231173948047	3.763181871101712	2.3445451908958073	-0.4838178337044064	1.0000000099644621	0.5806471014601439	0.4999999735481224	3.006582208484931
87	3.335807400720583	3.7512221391049896	2.3406273793237684	-0.44925941711646256	1.0000000099653972	0.5979263086407418	0.4999999685937985	3.041140624674413
88	3.3466135001059936	3.740074251968164	2.3368507717557074	-0.4147010005281879	1.0000000099662845	0.6152055156501253	0.499999961941922	3.075699040863895
89	3.3565494273963745	3.7297462969467254	2.333233648964776	-0.38014258393953104	1.0000000099671273	0.6324847224296295	0.4999999527040486	3.110257457053377
90	3.3656230568834182	3.720246122332129	2.3297948784072258	-0.34558416735042424	1.0000000099679294	0.6497639288898867	0.49999993926183744	3.1448158732428593
91	3.3738420632341617	3.7115812854990757	2.3265539667170234	-0.3110257507607766	1.0000000099686934	0.6670431348856015	0.499999918346219	3.1793742894323413
92	3.381213856375989	3.7037589999761757	2.3235311168542103	-0.2764673341704622	1.000000009969422	0.684322340158505	0.4999998822673672	3.2139327056218234
93	3.387745513182408	3.696786081239291	2.320747290467069	-0.24190891757930044	1.0000000099701176	0.7016015441845799	0.4999998078134726	3.2484911218113055
94	3.3934437057980595	3.6906688908782597	2.3182242761053944	-0.20735050098701874	1.0000000099707824	0.7188807456376454	0.49999957838459197	3.2830495380007876
95	3.3983146264344635	3.6854132787319935	2.3159847640126183	-0.17279208439317922	1.0000000099714184	0.7361599391620116	0.40048284803745826	3.3176079541902697
96	3.4023639084605697	3.681024522523101	2.314052428336137	-0.1382336677970115	1.0000000099720274	0.7499999921012283	-1.5730321771959206e-07	3.3521663703797517
97	3.405596543604449	3.6775072644497504	2.3124630128016146	-0.10367525119696411	1.0000000099726112	0.7499999866650764	-3.2736915208510833e-07	3.386724786569234
98	3.408016824121659	3.674865470718924	2.311270951159667	-0.06911683458911676	1.0000000099731707	0.7499999753517149	-1.0010000307412827e-06	3.421283202758716
99	3.4096282438775773	3.673102352722522	2.310476243411087	-0.03455841795739689	1.000000009973708	0.7499999407587372	-0.027821971576247106	3.455841618948198
100	3.4104332529353627	3.672220153681578	2.310078889556669	0.0	0.0	0.7490384574858046	0.0	3.49040003513768
101	3.4104332529353627	3.672220153681578	2.3100788895565363	0.00010000999909091926	1.0000000099751454	-0.7499682741074253	-0.0008487881494420698	3.527724731998699
102	3.4104307379022254	3.672222912074767	2.3100776476700657	0.037424707277314215	1.000000009974626	-0.7499999548678025	-7.167624501348369e-07	3.5650494288597177
103	3.4094895897324577	3.6732551302399243	2.309612892253224	0.07474940453283559	1.0000000099740844	-0.7499999816207437	-2.4244819458166453e-07	3.6023741257207362
104	3.4076107668021716	3.675317681589157	2.3086846233353895	0.11207410178077547	1.0000000099735193	-0.749999990670049	0.25869875294420036	3.639698822581755
105	3.404796661116861	3.6784127424099835	2.307292840916333	0.14939879902491163	1.0000000099729291	-0.7403441381380831	0.4999996061343635	3.6770235194427734
106	3.4010511031501647	3.6825437865393353	2.30547314479127	0.18672349626675466	1.0000000099723125	-0.7216818044084891	0.4999998246954791	3.714348216303792
107	3.3963791855703795	3.6877154103812555	2.30328264354964	0.2240481935070593	1.000000009971667	-0.7030194625211675	0.49999989461362404	3.7516729131648106
108	3.390786991298267	3.693933069617473	2.3007515946198778	0.26137289074625597	1.0000000099709914	-0.6843571180241723	0.49999992819037353	3.788997610025829
109	3.384281560458276	3.7012030316549853	2.297908887237015	0.29869758798461327	1.0000000099702826	-0.6656947722739349	0.4999999475004552	3.8263223068868477
110	3.3768707855463456	3.70953226259771	2.294782165426594	0.33602228522230954	1.0000000099695388	-0.6470324258029544	0.49999995978580547	3.8636470037478663
111	3.3685633121312124	3.7189283198541783	2.291397939033762	0.3733469824594692	1.000000009968757	-0.6283700788734267	0.4999999681551444	3.900971700608885
112	3.359368444118751	3.729399250162722	2.2877816842457994	0.41067167969618223	1.000000009967934	-0.6097077316315158	0.49999997414195596	3.9382963974699035
113	3.3492960527465443	3.740953492815817	2.2839579348552492	0.44799637693251565	1.000000009967067	-0.5910453841661488	0.49999997857162254	3.975621094330922
114	3.338356488594564	3.753599787866945	2.279950365345274	0.48532107416852033	1.0000000099661517	-0.5723830365354458	0.4999999819311687	4.012945791191941
115	3.326560496000254	3.767347089105728	2.2757818667386127	0.5226457714042358	1.0000000099651845	-0.5537206887793484	0.4999999845257548	4.050270488052959
116	3.3139191293549493	3.78220448158956	2.271474616032097	0.5599704686396934	1.0000000099641604	-0.5350583409264088	0.4999999865511105	4.087595184913978
117	3.3004436708352896	3.798181103522079	2.2670501399365652	0.5972951658749174	1.0000000099630746	-0.5163959929978732	0.4999999881470528	4.124919881774996
118	3.2861455491898783	3.815286072270315	2.262529373554481	0.6346198631099278	1.0000000099619208	-0.4977336450097694	0.4999999894060281	4.162244578636015
119	3.2710362592592572	3.8335284143128856	2.257932714552329	0.6719445603447405	1.0000000099606927	-0.47907129697467465	0.49999999039323356	4.1995692754970335
120	3.2551272819574937	3.852916998911136	2.2532800733200413	0.709269257579368	1.000000009959383	-0.46040894890273265	0.49999999115523813	4.236893972358052
121	3.2384300044874172	3.873460475293429	2.2485909195537177	0.7465939548138202	1.000000009957983	-0.44174660080234895	0.49999999172537724	4.274218669219071
122	3.2209556405995694	3.895167213139862	2.2438843256494985	0.7839186520481051	1.0000000099564834	-0.4230842526806849	0.4999999921272318	4.311543366080089
123	3.202715150738065	3.918045246150422	2.2391790072544335	0.8212433492822285	1.0000000099548725	-0.4044219045440217	0.4999999923768947	4.348868062941108
124	3.1837191619454477	3.942102218473991	2.2344933612837603	0.8585680465161946	1.0000000099531379	-0.3857595563980399	0.49999999248434884	4.386192759802126
125	3.1639778874237985	3.9673453337686295	2.2298455016823135	0.8958927437500059	1.0000000099512645	-0.36709720824804737	0.4999999924547181	4.423517456663145
126	3.1435010456713495	3.9937813066551904	2.2252532931802045	0.9332174409836639	1.0000000099492352	-0.3484348600991608	0.499999992288138	4.460842153524164
127	3.1222977791331212	4.021416316316557	2.2207343832689084	0.9705421382171681	1.0000000099470294	-0.32977251195649177	0.4999999919802495	4.498166850385182
