	x	y	theta	v	a	sigma	omega	t
0	11.2437810945274	6.14427860696518	-1.70786250110508	0.00010000997025881483	0.9999998533759485	-0.28312302442444953	-0.024126428086155505	0.0852377883498464
1	11.243779929744326	6.144270162287893	-1.7078633868707356	0.08533778582219535	0.923238985424705	-0.2851795077952951	-0.043021486603161296	0.1704755766996928
2	11.242786022371131	6.137064380986684	-1.7086250024555347	0.16403263505815327	0.8502943376599806	-0.2888465641648711	-0.05726628306252745	0.2557133650495392
3	11.240865027897508	6.1232151959903165	-1.7101088540526146	0.23650984384668755	0.783258106495401	-0.2937278154801372	-0.0674056632681917	0.3409511533993856
4	11.238065622095451	6.10325093211314	-1.7122866434049744	0.303273032551444	0.7215885134032566	-0.29947332513937236	-0.07393820126476582	0.426188941749232
5	11.234420243356059	6.077658933552151	-1.7151371886794018	0.36477964153259107	0.6648032726748092	-0.3057756538897468	-0.07732033643542209	0.5114267300990784
6	11.229947819301879	6.046889262016155	-1.7186426586620935	0.42144600218313166	0.6124733580020673	-0.31236626836196824	-0.07797012585607917	0.5966645184489248
7	11.224656044707322	6.011358035734144	-1.7227858594784389	0.4736518766424316	0.5642173095656761	-0.3190122694472996	-0.07627062593525516	0.6819023067987712
8	11.218543363704232	5.971450425411898	-1.7275483432804146	0.5217445122585105	0.5196960399354541	-0.32551340891807923	-0.07257288942939248	0.7671400951486176
9	11.21160074654291	5.927523328637452	-1.7329091601140028	0.566042253316782	0.47860810088331446	-0.33169936150719853	-0.06719856293426933	0.852377883498464
10	11.203813310378685	5.879907746570812	-1.7388441132718053	0.606837749322396	0.44068537772808913	-0.3374272183920037	-0.06044208340503633	0.9376156718483104
11	11.195161807698339	5.828910887432922	-1.7453254078760072	0.644400796278055	0.40568918246358515	-0.3425791679047059	-0.05257249177480587	1.0228534601981567
12	11.18562399031672	5.774818021170407	-1.752321604489258	0.6789808449487083	0.3734067212864752	-0.34706033083163085	-0.04383490176848987	1.108091248548003
13	11.175175848092222	5.717894109172747	-1.7597978060060644	0.7108092080261349	0.34364791586750737	-0.3507967209109097	-0.03445167895965478	1.1933290368978493
14	11.163792717388903	5.658385232275154	-1.7677160183929068	0.7401009963457152	0.3162425605071189	-0.3537333058303696	-0.024623396855317038	1.2785668252476956
15	11.151450253302627	5.596519839564013	-1.7760356352151236	0.7670568127854346	0.291037799026494	-0.3558321497199774	-0.014529642306075924	1.363804613597542
16	11.138125260681171	5.532509839701342	-1.7847140032726532	0.79186423110066	0.2678959058594732	-0.35707062429566166	-0.004329741730707624	1.4490424019473882
17	11.12379638122291	5.466551555552449	-1.7937070328061824	0.8146990856241001	0.24669235546170404	-0.3574396819049132	0.005836526844459944	1.5342801902972345
18	11.108444636859614	5.398826561783587	-1.8029698211649885	0.83572659640647	0.22731416308155256	-0.3569421892650469	0.015848181910442096	1.6195179786470808
19	11.092053832783378	5.3295024237563275	-1.8124572638933503	0.8551023529281377	0.20965847845141058	-0.3555913252896348	0.025602206682091573	1.704755766996927
20	11.074610826538674	5.258733354470717	-1.8221246320752815	0.8729731779401299	0.1936314123724605	-0.3534090498151776	0.03501261254728657	1.7899935553467734
21	11.056105672327277	5.18666080451829	-1.831928099527613	0.8894778912858154	0.1791470747889937	-0.35042465215729685	0.04400938790202961	1.8752313436966197
22	11.03653165189974	5.113413998043502	-1.8418252080057667	0.9047479917301738	0.16612680199990082	-0.34667338926589736	0.05253733592457645	1.960469132046466
23	11.015885205033415	5.03911042564357	-1.8517752628869626	0.9189082729182783	0.15449855029457812	-0.3421952229458935	0.060554815737197794	2.0457069203963125
24	10.99416577358469	4.963856303038307	-1.8617396557049048	0.9320773876486457	0.14419643358734982	-0.33703366437852234	0.06803240925684631	2.130944708746159
25	10.971375573464716	4.887747002291778	-1.8716821133204375	0.9443683727355668	0.13516038352575868	-0.3312347322773571	0.07495154071437692	2.2161824970960056
26	10.94751930867732	4.810867460438035	-1.8815688763454759	0.9558891448998195	0.12733591182728723	-0.32484602871345014	0.08130307752788686	2.301420285445852
27	10.922603840858617	4.733292568612795	-1.8913688116531917	0.9667429764014885	0.12067395214007741	-0.317915934198937	0.08708594043145489	2.3866580737956986
28	10.896637826671585	4.655087543265016	-1.9010534654074493	0.9770289571933439	0.10852535473879026	-0.3104929212401933	0.0923780891586203	2.471895862145545
29	10.869631334054246	4.576308279770672	-1.910597064063509	0.9862794184111608	0.09740980519897342	-0.30261881722832756	0.0971777253447058	2.5571336504953917
30	10.841611442318527	4.49704693515306	-1.919970916815108	0.9945824147699108	0.0872467694421186	-0.294335602843076	0.101490512371245	2.642371438845238
31	10.812607678417391	4.41738670187766	-1.9291491493193351	1.002019136437826	0.0779605964138681	-0.2856847760300584	0.10532820103016999	2.7276092271950847
32	10.782651680756992	4.337402401038351	-1.9381086261378844	1.008664325254579	0.06948021474939838	-0.2767068331233787	0.10870737650483833	2.812847015544931
33	10.7517768709437	4.257161058335778	-1.9468288420438016	1.0145866650938902	0.06173885708026101	-0.2674408567727922	0.11164833246792781	2.8980848038947777
34	10.720018140158764	4.176722462330906	-1.955291789618567	1.0198491487266588	0.05467380512767221	-0.2579241998402777	0.1141740736810892	2.9833225922446243
35	10.68741155521435	4.096139704207114	-1.963481809930468	1.0245094229564122	0.04822614980047447	-0.24819225431280922	0.11630944475191542	3.068560380594471
36	10.653994087871615	4.0154596981872475	-1.9713854323183728	1.0286201133060329	0.042340561942670926	-0.23827829447795731	0.11808037973098331	3.1537981689443173
37	10.619803369717198	3.934723681794713	-1.9789912084767842	1.032229129163516	0.03696507058341633	-0.22821338406217825	0.11951326501751125	3.239035957294164
38	10.584877473807557	3.8539676952850703	-1.986289545204204	1.0353799500262422	0.03205084650646871	-0.21802633767361654	0.12063440653526934	3.3242737456440103
39	10.549254723397091	3.7732230397756314	-1.9932725393779325	1.038111893297194	0.027551989698404823	-0.2077437276616539	0.12146959125611063	3.409511533993857
40	10.512973527354916	3.692516713838974	-1.9999338179817012	1.0404603639637238	0.02342531978575391	-0.19738992835122318	0.12204373278556536	3.4947493223437034
41	10.476072241329398	3.611871828581056	-2.006268385354171	1.0424570864136493	0.019630168962541234	-0.18698719048662193	0.12238059077815716	3.57998711069355
42	10.438589053319587	3.531308001479458	-2.0122724792538578	1.0441303186009503	0.016128177171945385	-0.17655573959174423	0.12250255431920616	3.6652248990433964
43	10.40056189203733	3.450841729500493	-2.0179434368504743	1.0455050487532014	0.012883089466232324	-0.16611389279436817	0.12243048000501022	3.750462687393243
44	10.362028356272466	3.370486742237552	-2.023279571350551	1.0466031748064162	0.009860555551776612	-0.155678189452131	0.12218357619777581	3.8357004757430895
45	10.3230256633863	3.2902543360123797	-2.0282800596399975	1.0474436667535505	0.007027931550885164	-0.14526353164435765	0.12177932576288904	3.920938264092936
46	10.283590615037914	3.210153690053755	-2.0329448410699325	1.048042712095622	0.004354083995823778	-0.13488333124959354	0.12123344046503597	4.0061760524427825
47	10.243759578277677	3.130192166013934	-2.037274527315698	1.0484138445857154	0.0018091960260679845	-0.1245496609103111	0.12055984106957059	4.091413840792629
48	10.203568480209377	3.0503755922033076	-2.041270323093558	1.0485680564536688	-0.000635424302472473	-0.11427340669373193	0.11977065804029102	4.176651629142475
49	10.163052814515039	2.9707085340199515	-2.0449339574165735	1.0485138942914625	-0.0030075337599597086	-0.10406442069317177	0.11887624852712299	4.261889417492321
50	10.122247658245719	2.891194552125643	-2.048267625002595	1.0482575387653759	-0.005334141977686118	-0.09393167218139313	0.1178852260868891	4.347127205842167
51	10.081187697399647	2.81183644997638	-2.0512739374061066	1.0478028683004539	-0.007641698094406548	-0.08388339623062509	0.11680450027254789	4.432364994192013
52	10.03990725993067	2.732636512356207	-2.0539558834253953	1.0471515068556494	-0.009956276408919705	-0.07392723895808408	0.11563932386024091	4.517602782541859
53	9.998440354950397	2.6535967365911617	-2.0563167983317827	1.0463028558743532	-0.012303761507100676	-0.06407039874596551	0.11439334606126314	4.602840570891705
54	9.956820717004115	2.57471905813789	-2.058360341473608	1.045254110455104	-0.014710033401135652	-0.05431976292576483	0.11306867059163023	4.688078359241551
55	9.915081854411163	2.496005572251335	-2.060090481820234	1.0440002597414388	-0.017201153284890768	-0.04468203951287695	0.11166591795031984	4.773316147591397
56	9.873257100764235	2.41745875343986	-2.061511491027013	1.042534071478368	-0.019803550572640542	-0.035163883632736266	0.11018429169408242	4.858553935941243
57	9.83137966877864	2.3390816744160112	-2.0626279436178736	1.0408460606260819	-0.022544211950231884	-0.02577201829783833	0.1086216488975124	4.943791724291089
58	9.789482705772322	2.260878226248179	-2.063444723895272	1.0389244418593537	-0.025450873228970102	-0.016513349178900846	0.10697457535711148	5.0290295126409355
59	9.747599350141293	2.1828533414139106	-2.0639670391953575	1.0367550657137439	-0.028552214855314045	-0.007395072965796684	0.1052384664419369	5.1142673009907815
60	9.705762788274724	2.105013221450319	-2.0642004391071973	1.0343213380669873	-0.03187806199567632	0.0015752211630435465	0.10340761481484365	5.199505089340628
61	9.664006311430963	2.0273655708916505	-2.0641508402668336	1.0316041225655965	-0.03545959018760649	0.01038945754839363	0.10147530654995643	5.284742877690474
62	9.622363372172769	1.949919839179009	-2.063824556318055	1.0285816255222129	-0.039329537629274644	0.0190389882508346	0.09943392745528241	5.36998066604032
63	9.580867640039713	1.872687472222849	-2.0632283326003233	1.0252292627178714	-0.04352242527058399	0.02751451631406194	0.09727508167445013	5.455218454390166
64	9.539553056221312	1.795682175295354	-2.0623693850788216	1.0215195074441854	-0.04807478597550433	0.035806029137542744	0.09498972488709968	5.540456242740012
65	9.498453887089488	1.7189201889274563	-2.0612554429707304	1.0174217190122412	-0.053025404149565594	0.04390274320287948	0.09256831465065087	5.625694031089858
66	9.45760477655753	1.6424205794842837	-2.0598947944443604	1.0129019508361754	-0.05841556737283961	0.05179306161497364	0.09000098062271739	5.710931819439704
67	9.417040797359082	1.5662055460936422	-2.058296334672913	1.0079227370681132	-0.06428933175177971	0.059464546152571456	0.08727771756752319	5.79616960778955
68	9.37679750148954	1.4903007456053667	-2.056469615411891	1.0024428566151018	-0.07069380290687409	0.06690390577024967	0.08438860417417936	5.881407396139396
69	9.336910970228546	1.4147356372658988	-2.0544248951386908	0.99641707320528	-0.07767943475259292	0.07409700375198734	0.08132405079131393	5.966645184489242
70	9.297417864371125	1.3395438488035962	-2.052173188645481	0.9897958499867027	-0.0853003485055792	0.08102888598108951	0.07807507920222154	6.051882972839088
71	9.25835547554143	1.2647635656378522	-2.049726314813968	0.982525036934616	-0.09361467467683474	0.08768383305752596	0.07463363751793897	6.1371207611889345
72	9.219761779752089	1.19043794495152	-2.0470969411260187	0.9745455291080722	-0.102684921155008	0.0940454392560592	0.07099295314307731	6.2223585495387805
73	9.181675494708179	1.1166155564044908	-2.0442986232818514	0.9657928935319411	-0.11257837070621429	0.10009672157039938	0.06714792656006852	6.307596337888627
74	9.144136142741484	1.0433508513203666	-2.0413458381139304	0.9561969621969142	-0.12336750602787945	0.10582026232265754	0.06309556829766164	6.392834126238473
75	9.107184121699829	0.9707046622514353	-2.0382540078080806	0.9456813888288614	-0.13386905862130105	0.11119838901902689	0.05881790179369138	6.478071914588319
76	9.070860786590345	0.8987447348885519	-2.0350395132830945	0.9342706863435057	-0.14541980721176875	0.11621189688329961	0.05431648882636794	6.563309702938165
77	9.035204441827013	0.8275380996284796	-2.0317193555461746	0.9218754235945136	-0.15810166282071592	0.12084171426178836	0.049596148683751784	6.648547491288011
78	9.000254635123731	0.7571597586083887	-2.028311474329011	0.9083991875212426	-0.1720037280072864	0.1250691802862615	0.04466556659465357	6.733785279637857
79	8.966052269080246	0.6876932673580218	-2.0248347205275694	0.893737970157973	-0.1872229050519131	0.12887637439818253	0.03953794611768509	6.819023067987703
80	8.932639738996732	0.6192313581697617	-2.0213088087736177	0.8777795038029147	-0.20386457252244225	0.13224650148114941	0.03423170481195358	6.904260856337549
81	8.900061102511685	0.5518766078908043	-2.017754247837841	0.8604025385182148	-0.2220433393727845	0.13516433629076513	0.028771211766594224	6.989498644687395
82	8.868362287326118	0.48574215324817377	-2.014192246819733	0.8414760553522643	-0.24188388613512565	0.1376167307498947	0.023187564819500475	7.074736433037241
83	8.837591343927173	0.42095245731207176	-2.0106445954963843	0.8208584078606401	-0.2635219036501832	0.13959318749232763	0.017519404567856847	7.159974221387087
84	8.807798750826498	0.357644131293726	-2.007133517816895	0.7983963836117572	-0.2871051407081351	0.14108650279089796	0.011813761565853294	7.2452120097369335
85	8.779037780351977	0.29596681657084745	-2.003681498382573	0.7739241763939243	-0.3127945728920729	0.1420934816988637	0.006126932398262604	7.3304497980867795
86	8.751364933441886	0.23608413264699268	-2.0003110828922805	0.7472622587927692	-0.340765705800714	0.14261572786586063	0.0005253795616972012	7.415687586436626
87	8.724840452154142	0.17817469768937122	-1.99704465501157	0.718216143684842	-0.37121002665663294	0.1426605100577439	-0.004913350813375845	7.500925374786472
88	8.699528918689529	0.12243322935978493	-1.9939041940073234	0.686575021999343	-0.40433661905823515	0.14224170690102483	-0.010099700550355606	7.586163163136318
89	8.675499949614306	0.06907173485911702	-1.9909110198527078	0.6521102628419647	-0.4403739562848947	0.1413808307631168	-0.014931169145865179	7.671400951486164
90	8.652828993648592	0.018320800445684446	-1.9880855354426825	0.6145737607613684	-0.4795718890890303	0.1401081309276458	-0.01929139287056393	7.75663873983601
91	8.631598240883156	-0.029569007847817328	-1.9854469791813654	0.5736961135806615	-0.5222038442753852	0.13846377526517092	-0.023049248020384095	7.841876528185856
92	8.611897650662124	-0.07432561900802555	-1.9830132056486207	0.52918461282684	-0.568569250537594	0.13649910834078632	-0.026057998090892244	7.927114316535702
93	8.5938261047497	-0.11565379243101963	-1.9808005174955112	0.4807210273872859	-0.6189962079449914	0.13427798221469414	-0.028154511569464732	8.012352104885549
94	8.57749269200633	-0.15323329739114536	-1.9788235783650656	0.42795915962511316	-0.6738444170827996	0.1318781539164428	-0.02915858632163038	8.097589893235396
95	8.563018130991141	-0.18671691861690023	-1.9770954447357305	0.3705221518210839	-0.7335083830607599	0.12939274050697894	-0.028872428587611635	8.182827681585243
96	8.550536338234282	-0.215728268905857	-1.9756277644329887	0.30799951951291277	-0.7984209083060767	0.12693171854988206	-0.027080349685119232	8.26806546993509
97	8.540196153210983	-0.23985938929748613	-1.974431201485291	0.2399438871166273	-0.8690568860528477	0.12462344943498203	-0.023548761702936783	8.353303258284937
98	8.532163237508556	-0.2586681180907739	-1.9735161613867058	0.1658674001992781	-0.9459374023102861	0.12261620506904614	-0.018026574496571267	8.438541046634784
99	8.52662217704948	-0.27167521268950073	-1.9728939080729873	0.08523778810895043	-0.999999997173836	0.12107965972743466	-0.010246119410937685	8.52377883498463
100	8.52377883498464	-0.27836121399162256	-1.9725781844427088	0.0	0.0	0.1202063031696779	0.0	8.609016623334478
101	8.52377883498464	-0.27836121399162256	-1.9725781844427088	4.6068540661579736e-05	-0.3915425985434718	0.40131041037894183	0.03577406900767897	8.756754565680826
102	8.523776173409688	-0.2783674780659145	-1.972577152985682	-0.057799629309093194	-0.3343790965085442	0.4065955977234926	-0.02163536480480369	8.904492508027174
103	8.52711549499313	-0.2705082898755284	-1.973890328163938	-0.10720010899089649	-0.286414681341462	0.4033992334453183	-0.0017743732424900234	9.052230450373521
104	8.53332802076133	-0.2559401165213529	-1.9763044524029945	-0.1495144246700691	-0.24608378196423308	0.40313709119351837	0.014258149421038768	9.19996839271987
105	8.542041797665503	-0.2356425315255348	-1.979669041801779	-0.18587033626227226	-0.21188798456643704	0.40524356085064944	0.01730730115635322	9.347706335066217
106	8.552959253326641	-0.21044597799019663	-1.9838762026787458	-0.21717423111003242	-0.18244371639844195	0.40780050591105765	0.019064947166393995	9.495444277412565
107	8.565839150125944	-0.18105980096304178	-1.9888266547812719	-0.24412809036475894	-0.15705335703396953	0.4106171219763625	0.01694981412136773	9.643182219758913
108	8.580480944502307	-0.1480985353739757	-1.9944346208985935	-0.26733083017154396	-0.13610657503086757	0.41312125263780647	0.0118520339839996	9.79092016210526
109	8.596716504185434	-0.11209500411710697	-2.0006176491006658	-0.2874389355064132	-0.11938385051309836	0.41487224775122156	0.0046105142553956365	9.938658104451608
110	8.614412291100527	-0.073492032194662	-2.007297435839466	-0.3050764599306024	-0.10687119557703584	0.4155533956404722	-0.0038918774071600285	10.086396046797956
111	8.633467169287734	-0.032646715803575824	-2.0144001958248743	-0.3208653904612478	-0.09886311367772314	0.41497841768047417	-0.012389877805956438	10.234133989144304
112	8.653812834830491	0.010169080393138547	-2.0218589254078214	-0.3354712234499477	-0.09928929950373104	0.4131479626274995	-0.015019009119572864	10.381871931490652
113	8.675417931198652	0.05477395268621315	-2.0296185194332614	-0.35014002025563923	-0.1087872275921085	0.41092908512409276	-0.012950037637808616	10.529609873837
114	8.698328298296047	0.10115283813959128	-2.037668585656201	-0.36621202141366116	-0.12718009075884928	0.40901587321017513	-0.006992930940731331	10.677347816183348
115	8.722679998810282	0.14946612524021746	-2.0460442123598654	-0.3850013463297954	-0.15374777199482628	0.4079827519820214	0.18190303915638392	10.825085758529696
116	8.748705630451816	0.200042028881916	-2.054824650365621	-0.40771572580464654	-0.17272852907300956	0.43485673269353275	0.18656349817971907	10.972823700876043
117	8.776735936997088	0.25335775888569656	-2.064817488272765	-0.43323428327440433	-0.1848144329462135	0.4624192400315411	0.18649029306154025	11.120561643222391
118	8.807085259872625	0.30971001480992993	-2.076211900286568	-0.460538387313785	-0.19146087786958976	0.4899709321960205	0.18355883597378234	11.26829958556874
119	8.840027774154006	0.3692423204796757	-2.089172133276182	-0.4888244234500637	-0.19284562347276188	0.517089536922278	0.17724043304180556	11.416037527915087
120	8.875809582568163	0.43197261108804047	-2.103840201873035	-0.5173150390524281	-0.18902682876185553	0.54327467380045	0.1670843069083187	11.563775470261435
121	8.914646548597537	0.49779650857534535	-2.1203235999955647	-0.5452414737819601	-0.1800176404703814	0.5679593655014508	0.10384987118994939	11.711513412607783
122	8.956718027926172	0.5664896874290114	-2.138680827110323	-0.5718369095710989	-0.16958831997461338	0.5833019317839871	-0.04048256435184154	11.85925135495413
123	9.002156659342123	0.6377114573780609	-2.1585913648811164	-0.5968915390101225	-0.16715053132434482	0.5773211210257425	0.12447746209370458	12.006989297300478
124	9.051056848718897	0.7110947391954678	-2.1791049437545835	-0.6215860145700799	-0.16070939949951119	0.5957111651439619	0.11036504155537977	12.154727239646826
125	9.103536935729167	0.7864533955129953	-2.201336743026036	-0.6453288905678549	-0.15033038842341512	0.6120162692903229	0.09318322005050178	12.302465181993174
