	x	y	theta	v	a	sigma	omega	t
0	15.3731343283582	-3.70646766169154	0.495551673485828	-9.998782283745908e-09	-1.0000000099900213	-0.6925786532358587	-0.0016476619265571207	0.12847188907745427
1	15.373134327227692	-3.7064676623026696	0.49555167386647175	-0.12847190036226702	-1.0000000099894655	-0.6927903314761245	0.49999985867037633	0.25694377815490854
2	15.358614746826813	-3.714316084148168	0.5004444596221611	-0.2569437907253123	-1.0000000099888449	-0.6285544050942808	0.4999999495870683	0.3854156672323628
3	15.32965273572806	-3.730154821162156	0.5090141405322895	-0.38541568108798235	-1.000000009988147	-0.564318467032198	0.4999999724223411	0.5138875563098171
4	15.286414911737845	-3.754284342218052	0.5202077639295173	-0.5138875714503193	-1.0000000099873563	-0.5000825260364244	0.4999999805416777	0.6423594453872714
5	15.229128213312078	-3.7871003249413024	0.533091343794447	-0.6423594618123497	-1.0000000099864526	-0.43584658399754433	0.49999998272137547	0.7708313344647257
6	15.158054253038445	-3.8290394455158525	0.5468175265752616	-0.7708313521740884	-1.0000000099854096	-0.3716106416786342	0.4999999805165225	0.8993032235421801
7	15.073464310499068	-3.8805323013869115	0.5606010133835906	-0.8993032425355402	-1.0000000099841924	-0.3073746996429858	0.4999999721049094	1.0277751126196344
8	14.975613435587698	-3.941961818565376	0.5736992064811561	-1.0277751328967004	-1.0000000099827535	-0.24313875868799328	0.4999999471190691	1.1562470016970887
9	14.86471299164834	-4.013625682185568	0.5853963659074835	-1.156247023257555	-1.000000009981026	-0.17890282094297902	0.49999983424694006	1.284718890774543
10	14.740901552598407	-4.095701352664804	0.5949900670828767	-1.284718913618078	-1.0000000099789137	-0.11466689769886053	-0.33016281914949586	1.4131907798519974
11	14.604214503862242	-4.188212113862754	0.6017790632090328	-1.41319080397823	-1.000000009976272	-0.15708353877813416	0.4999997328182244	1.5416626689294517
12	14.454553070741166	-4.290992362778816	0.6120491561764075	-1.54166269433795	-1.0000000099728739	-0.09284762856475441	0.4999999702885163	1.670134558006906
13	14.292446165805284	-4.404787095524917	0.618635747927225	-1.6701345846971474	-1.0000000099683413	-0.028611687843117385	0.499999996376428	1.7986064470843603
14	14.117646135116615	-4.529218749831585	0.6208288737961758	-1.798606475055681	-1.0000000099619946	0.03562425623008356	0.5000000035945967	1.9270783361618147
15	13.929694286927086	-4.663634594783162	0.6178877330297609	-1.9270783654133223	-1.000000009952474	0.09986020123061735	0.5000000064089648	2.055550225239269
16	13.727894604194491	-4.807058671376335	0.6090286481363784	-2.0555502557696665	-1.000000009936609	0.1640961465927199	0.5000000077275364	2.184022114316723
17	13.511294760773634	-4.958131430036855	0.593411583715821	-2.1840221461239016	-1.0000000099048896	0.22833209212422392	0.5000000084140432	2.312494003394177
18	13.278678822872788	-5.115032738799133	0.5701245245152299	-2.3124940364739914	-1.0000000098097694	0.2925680377439272	0.5000000087849374	2.440965892471631
19	13.028578025935708	-5.275383426672738	0.5381648403256768	-2.4409659268117934	-0.4595098475449383	0.35680398341128244	0.5000000089623505	2.569437781549085
20	12.759309008845193	-5.436120281293947	0.4964164983087162	-2.5000000249755843	-4.867265834113552e-13	0.4210399291014321	0.5000000089593141	2.6979096706265393
21	12.476897299192235	-5.589091005885037	0.44504833834806207	-2.500000024975647	-9.552963062394402e-13	0.4852758747911916	0.500000008559889	2.8263815597039934
22	12.187003736408627	-5.72735936303034	0.3845592757153966	-2.50000002497577	-7.119787960048501e-11	0.5495118204296328	0.15593830214687973	2.9548534487814475
23	11.889281737710386	-5.847850142022611	0.31430881243419506	-2.500000024984917	1.0418728877054539e-11	0.5695455086859733	-0.500000008818073	3.0833253378589016
24	11.583836512448908	-5.9471458151260235	0.240858734395152	-2.5000000249835783	-2.5267342647064376e-13	0.5053095630143607	-0.5000000091316784	3.2117972269363557
25	11.27192812325056	-6.023758954205685	0.17740087076735567	-2.5000000249836103	-2.313073992129276e-13	0.4410736173024548	-0.5000000091407445	3.34026911601381
26	10.955789091498433	-6.080438129700589	0.1232485054603286	-2.5000000249836405	-1.7499248165131567e-13	0.37683767158938397	-0.5000000090541454	3.468741005091264
27	10.637045670443543	-6.119922909884667	0.0778531329320132	-2.5000000249836627	6.329222366187125e-13	0.31260172588744006	-0.5000000089539084	3.597212894168718
28	10.316838805878888	-6.144902505910929	0.04077997744241392	-2.5000000249835814	-1.516627073947584e-13	0.24836578019837507	-0.5000000086725201	3.725684783246172
29	9.995926104961752	-6.157996577929351	0.011690055688191883	-2.500000024983601	-1.176213865668693e-13	0.1841298345454632	-0.5000000080840171	3.8541566723236262
30	9.674768324600995	-6.161751101295812	-0.009672909517942915	-2.5000000249836165	-8.210493330522204e-14	0.11989388896816038	-0.5000000067757879	3.9826285614010803
31	9.353603624198744	-6.158644407315074	-0.023491860479692275	-2.5000000249836267	-4.682741545165388e-14	0.05565794355893096	-0.5000000031916743	4.111100450478535
32	9.032512518546387	-6.151099991969542	-0.029882819395880552	-2.5000000249836325	-1.7766784416735436e-14	-0.00857800138983851	-0.4999999875149627	4.2395723395559894
33	8.711476185971698	-6.1415036646015935	-0.028898838070139217	-2.5000000249836347	-6.206622351098847e-15	-0.0728139443245899	-0.33220872930013545	4.368044228633444
34	8.390430566208373	-6.13222323558448	-0.02053177342410488	-2.5000000249836356	-1.3265756001052576e-14	-0.11549342734579894	0.4999998086776518	4.4965161177108985
35	8.06931853518005	-6.125629309528942	-0.007224644237211413	-2.5000000249836374	-2.7460606248536945e-15	-0.05125750738661522	0.49999809123721034	4.624988006788353
36	7.748147191304973	-6.123308920458845	-0.001339892397268645	-2.500000024983638	-1.8106171346825205e-15	0.012978191929750539	-0.0849114203438831	4.753459895865808
37	7.426967753709481	-6.122878574314716	-0.0028286660298979904	-2.500000024983638	2.81949487863521e-16	0.0020694613539220925	-0.015775912831179833	4.881931784943262
38	7.105789312740269	-6.121970065346109	-0.0030660481653532155	-2.500000024983638	3.9927996259201417e-16	4.270003057916885e-05	-0.0004365167592800786	5.010403674020717
39	6.7846110964841	-6.120985314379638	-0.0030709461596838635	-2.500000024983638	-9.663065148964284e-16	-1.3380102099511214e-05	-0.00024230602070429241	5.138875563098171
40	6.463432885055089	-6.119998990284095	-0.003069411367710601	-2.500000024983638	-9.317044249255303e-16	-4.450961431423241e-05	0.0009881684455882252	5.267347452175626
41	6.142254672112653	-6.1190131591302945	-0.0030643058013766914	-2.500000024983638	1.1775874600058081e-15	8.244225261721847e-05	-0.0015376144200539787	5.39581934125308
42	5.821076454141178	-6.118028967773179	-0.003073762508576134	-2.500000024983638	7.489378982535223e-18	-0.00011509797659985053	0.0019334986296457104	5.524291230330535
43	5.499898245491273	-6.11704173912774	-0.00306055995974056	-2.500000024983638	-1.0860094902460981e-15	0.00013330224487940304	-0.001716491471769437	5.6527631194079895
44	5.178720023835426	-6.116058750853372	-0.0030758506664285085	-2.500000024983638	7.878833596902887e-16	-8.721865708415632e-05	0.0008084663120620925	5.781235008485444
45	4.857541817247711	-6.115070851537137	-0.00306584607198316	-2.500000024983638	-1.4294705141731866e-15	1.6646537281943375e-05	2.9903118752316013e-05	5.909706897562899
46	4.536363600792537	-6.114086165478653	-0.0030677555470838558	-2.500000024983638	-3.855256823759042e-16	2.0488247437360838e-05	-0.000515585403834558	6.038178786640353
47	4.215185386218183	-6.113100866138364	-0.0030701056934042455	-2.500000024983638	6.224320367718035e-16	-4.5749983374027e-05	0.0006372601901669592	6.166650675717808
48	3.8940071739603126	-6.112114811982278	-0.0030648578480005303	-2.500000024983638	-8.681923937554381e-16	3.6120037090579956e-05	-0.00010174211479565406	6.295122564795262
49	3.572828956532206	-6.111130443319811	-0.0030690010707210354	-2.500000024983638	9.934308049557695e-16	2.3049035404047064e-05	-0.0007364972986462659	6.423594453872717
50	3.2516507431853143	-6.110144743944465	-0.003071644957462006	-2.500000024983638	6.028148184019314e-16	-7.157016385348072e-05	0.0013794294044343304	6.552066342950171
51	2.9304725324456227	-6.109158195410302	-0.0030634353554446613	-2.500000024983638	5.13937660295031e-16	0.00010564773758318543	-0.0017663376681084251	6.680538232027626
52	2.6092943136175837	-6.10817428362146	-0.003075553895275203	-2.500000024983638	6.784541834210264e-16	-0.00012127699938736939	0.0017033432108453823	6.80901012110508
53	2.2881161067367026	-6.107186479621652	-0.0030616425689849957	-2.500000024983638	7.729139581536999e-16	9.755472065719339e-05	-0.0013537393194493952	6.937482010182535
54	1.9669378861452358	-6.1062031436367725	-0.003072832782749513	-2.500000024983638	-1.4922778199511384e-15	-7.636272703089778e-05	0.001012992701014129	7.0659538992599895
55	1.645759676577618	-6.105216213599011	-0.0030640734399692677	-2.500000024983638	-6.188764951745169e-16	5.377835889006021e-05	-0.0004320308426599556	7.194425788337444
56	1.324581458377463	-6.104232096871317	-0.003070242196606586	-2.500000024983638	-9.244245776835635e-16	-1.7254596061886987e-06	-0.00021156318454784544	7.322897677414899
57	1.0034032462541955	-6.103245998873376	-0.0030700442742339525	-2.500000024983638	-1.1634057089442782e-15	-2.890538158429246e-05	0.00036299120959709685	7.451369566492353
58	0.6822250339357637	-6.102259964443791	-0.0030667286233278957	-2.500000024983638	2.6449569513629677e-16	1.772878483115673e-05	-0.0001627481834178541	7.579841455569808
59	0.3610468183497514	-6.101274994929041	-0.0030687622398469193	-2.500000024983638	8.517441164189666e-16	-3.1797817364590066e-06	-3.94898658309264e-06	7.708313344647262
60	0.03986860476745336	-6.100289372260968	-0.0030683974964802936	-2.500000024983638	1.5473539512119436e-15	-3.6871155027304405e-06	6.845258460726357e-05	7.836785233724717
61	-0.2813096091743226	-6.0993038667405175	-0.0030679745583565275	-2.500000024983638	4.773260054464817e-16	5.107117353998977e-06	-5.7364013717315405e-05	7.965257122802171
62	-0.6024878235328777	-6.098318497058579	-0.003068560380696502	-2.500000024983638	5.574816365093649e-16	-2.2625458533295358e-06	1.7717226033281613e-05	8.093729011879626
63	-0.9236660373141261	-6.097332939223268	-0.003068300850747567	-2.500000024983638	1.298777440906277e-15	1.3619644378404183e-08	1.3189741885802908e-05	8.22220090095708
64	-1.2448442513511453	-6.096347464743322	-0.003068302413016727	-2.500000024983638	-1.4587629967457625e-15	1.7081307008915278e-06	-3.261097577913778e-05	8.350672790034535
65	-1.566022465386625	-6.095361989761609	-0.0030684983476418413	-2.500000024983638	-6.643397306647621e-16	-2.4814629621134092e-06	2.564924066725044e-05	8.47914467911199
66	-1.8872006792290101	-6.094376451849963	-0.0030682137063582655	-2.500000024983638	-4.55306751275112e-16	8.137434398105183e-07	1.8929792790397117e-05	8.607616568189444
67	-2.208378893351907	-6.093391005358896	-0.003068307048463606	-2.500000024983638	-3.218598915205492e-16	3.2456896794376116e-06	-7.833823422588479e-05	8.736088457266899
68	-2.5295571073828187	-6.092405528888379	-0.0030686793519356104	-2.500000024983638	-8.845436478639261e-16	-6.818571258553891e-06	8.744476809810483e-05	8.864560346344353
69	-2.8507353210468116	-6.091419932842097	-0.0030678972137756434	-2.500000024983638	-1.7220313918771401e-15	4.4156232889495454e-06	1.8980480402660928e-05	8.993032235421808
70	-3.171913535481579	-6.090434588001553	-0.0030684037168748025	-2.500000024983638	-1.9749985432390975e-16	6.854081461876998e-06	-0.00021133825414591188	9.121504124499262
71	-3.4930917494172244	-6.089449080483248	-0.0030691899283052594	-2.500000024983638	-1.5109806426384146e-15	-2.0296943282579434e-05	0.0003244660968393272	9.249976013576717
72	-3.8142699625779533	-6.088463320450961	-0.0030668617259191635	-2.500000024983638	1.0396664864013782e-16	2.1387829119957146e-05	-0.00015605429203794074	9.378447902654171
73	-4.135448178032861	-6.087478308186558	-0.0030693150605961145	-2.500000024983638	6.85822675232696e-16	1.3392394231981729e-06	-0.00035437469647677346	9.506919791731626
74	-4.456626391070237	-6.086492507964505	-0.0030694686807928506	-2.500000024983638	-1.4306244970803825e-15	-4.4187947274422405e-05	0.0009597319880422695	9.63539168080908
75	-4.777804603956171	-6.08550665840299	-0.0030644000119346127	-2.500000024983638	-1.5050152553025445e-15	7.911063423742872e-05	-0.0012817793839502137	9.763863569886535
76	-5.098982821834923	-6.084522436787496	-0.0030734745590322633	-2.500000024983638	-8.561028292438514e-16	-8.55619845991908e-05	0.001263547193166853	9.89233545896399
77	-5.420161030769086	-6.083535300625176	-0.003063659996593559	-2.500000024983638	-4.800853898548311e-16	7.676831024546984e-05	-0.001088024580548706	10.020807348041444
78	-5.741339249376091	-6.082551316686489	-0.0030724658626261076	-2.500000024983638	-5.305940341554779e-16	-6.301226298032725e-05	0.00118257464756142	10.149279237118899
79	-6.062517459305811	-6.081564504495475	-0.003065237912133481	-2.500000024983638	1.2317307349320036e-15	8.891533596699316e-05	-0.002454703437499788	10.277751126196353
80	-6.383695676359772	-6.080580013764687	-0.003075437127601245	-2.500000024983638	0.6486242438380871	-0.00022644505177352533	-0.053590859290405767	10.406223015273808
81	-6.704873883355995	-6.079592247268111	-0.0030494622844212775	-2.416670043076323	1.0000000098726403	-0.007111363982095996	0.4335504810683703	10.534694904351262
82	-7.015346605485168	-6.078645469476871	-0.0022609151347749625	-2.2881981527304105	1.0000000099363198	0.048587685331196624	0.4999993694988468	10.663166793428717
83	-7.309314993404773	-6.077980830766991	-0.007366104589577374	-2.1597262623762137	1.000000009957547	0.11282354886824958	-0.49999977539020235	10.791638682506171
84	-7.586771578725864	-6.075937019574931	-0.018593958958866216	-2.0312543720191827	1.0000000099681599	0.04858763318556739	-0.49999997953608516	10.920110571583626
85	-7.847685555011395	-6.0710850366279345	-0.023125877333528486	-1.902782481660675	1.0000000099745265	-0.01564830872412239	-0.49999999833055897	11.04858246066108
86	-8.09207425007427	-6.065432325906714	-0.02175958988293046	-1.7743105913012271	1.0000000099787703	-0.07988425304837439	-0.500000003615433	11.177054349738535
87	-8.319969321053167	-6.060472639830871	-0.015242314137211041	-1.6458387009410997	1.000000009981801	-0.14412019805158505	-0.50000000575396	11.30552623881599
88	-8.531388766359898	-6.057249868646792	-0.004282991449416459	-1.5173668105804319	1.0000000099840738	-0.20835614332953734	-0.5000000067843379	11.433998127893444
89	-8.726325958960432	-6.0564149492124475	0.01043660786912642	-1.388894920219298	1.0000000099858415	-0.2725920887398652	-0.5000000073128823	11.562470016970899
90	-8.904750195418753	-6.058277160615607	0.02825137581431763	-1.2604230298577326	1.000000009987256	-0.33682803421809693	-0.5000000075599378	11.690941906048353
91	-9.066614506403981	-6.0628512670870425	0.04850243842514582	-1.1319511394957371	1.0000000099884134	-0.40106397972806884	-0.5000000076037294	11.819413795125808
92	-9.211867387285581	-6.06990191571731	0.0705262626388782	-1.0034792491332816	1.0000000099893784	-0.46529992524366687	-0.5000000074422165	11.947885684203262
93	-9.340465776687198	-6.078986546678046	0.09364266486604648	-0.875007358770295	1.0000000099901953	-0.5295358707385146	-0.5000000069748908	12.076357573280717
94	-9.452387109453882	-6.0894979010189765	0.11714092173239019	-0.7465354684066425	1.000000009990896	-0.5937718161733234	-0.500000005827207	12.204829462358171
95	-9.547638653244276	-6.100707072351759	0.1402629028209338	-0.6180635780420686	1.000000009991504	-0.658007761460686	-0.5000000020410238	12.333301351435626
96	-9.62626264590397	-6.111807996135034	0.16218168519819795	-0.48959168767604233	1.0000000099920368	-0.7222437062616288	-0.21604961837838188	12.46177324051308
97	-9.688336016492268	-6.121964363826397	0.18197335359746075	-0.3611197973072123	1.0000000099925066	-0.7500000088691626	3.629209970103128e-09	12.590245129590535
98	-9.73396372823511	-6.130360271661575	0.19740915612804313	-0.2326479069301387	1.0000000099929238	-0.7500000084029111	0.19790352550065363	12.71871701866799
99	-9.763271945958849	-6.136222329629242	0.20735352133304058	0.0	0.0	-0.724574968626754	0.0	12.847188907745444
100	-9.763271945958849	-6.136222329629242	0.20735352133309254	0.0001000099991117354	1.000000009983199	0.7499974465293584	4.7350117230020774e-05	12.901298011904684
101	-9.7632666504244	-6.136221215568757	0.20735532178442073	0.18561786970444874	1.000000009982796	0.7500000086017833	5.398147164404769e-09	12.955407116063924
102	-9.753438180067675	-6.134153510128304	0.2106969638822766	0.23972697444220994	1.0000000099823734	0.7500000088938722	3.322702478357142e-09	13.009516220223164
103	-9.740753625974538	-6.131440649582684	0.21501272158126356	0.2938360791605358	1.0000000099819297	0.7500000090736606	2.200860625102347e-09	13.063625324382404
104	-9.725220519188998	-6.128048397048021	0.2203025948809807	0.3479451838723629	1.0000000099814634	0.7500000091927471	1.5219209000384804e-09	13.117734428541644
105	-9.70684853985214	-6.1239342279994515	0.22656658378125025	0.40205428858092446	1.0000000099809725	0.7500000092750969	1.0732073660637156e-09	13.171843532700883
106	-9.685649721209348	-6.11904737858847	0.2338046882819447	0.45616339328751276	1.000000009980455	0.7500000093331674	7.541789151921412e-10	13.225952636860123
107	-9.661638693453682	-6.113328906616733	0.24201690838294976	0.5102724979927732	1.0000000099799087	0.7500000093739752	5.116981615869914e-10	13.280061741019363
108	-9.63483296697123	-6.106711766816191	0.25120324408414985	0.5643816026970736	1.0000000099793311	0.7500000094016628	3.148742894947852e-10	13.334170845178603
109	-9.605253254444968	-6.099120902350899	0.2613636953854192	0.6184907074006432	1.0000000099787196	0.7500000094187003	1.438272662133058e-10	13.388279949337843
110	-9.572923831148126	-6.090473354716294	0.2724982622866145	0.672599812103634	1.000000009978071	0.7500000094264826	-1.503823210802218e-11	13.442389053497083
111	-9.537872932613508	-6.080678394465981	0.284606944787567	0.7267089168061516	1.0000000099773816	0.7500000094256689	-1.744095446427141e-10	13.496498157656323
112	-9.50013318869966	-6.069637675442573	0.29768974288807254	0.7808180215082721	1.0000000099766477	0.7500000094162318	-0.025415030769668574	13.550607261815562
113	-9.459742092885982	-6.0572454154262605	0.3117466565878776	0.8349271262100516	1.0000000099758648	0.7486248248691054	-0.4999999988366165	13.604716365974802
114	-9.416742505415062	-6.043388606340679	0.32673629419083255	0.8890362309115327	1.0000000099750292	0.7215702728524322	-0.500000004149719	13.658825470134042
115	-9.371182549554945	-6.027949143158727	0.3418524158740683	0.943145335612748	1.0000000099741353	0.6945157205482694	-0.5000000058980935	13.712934574293282
116	-9.323102795503969	-6.010841287021946	0.3570338621964968	0.997254440313723	1.0000000099731763	0.6674611681495012	-0.500000006752367	13.767043678452522
117	-9.27254513260329	-5.991982255436163	0.37222240814326707	1.051363545014477	1.0000000099721447	0.6404066157045072	-0.5000000072468276	13.821152782611762
118	-9.219552427639169	-5.971292731533761	0.3873623464693026	1.1054726497150247	1.0000000099710316	0.6133520632327566	-0.500000007559145	13.875261886771002
119	-9.164168151267537	-5.948697335826678	0.4024001249346785	1.1595817544153775	1.0000000099698267	0.5862975107441053	-0.5000000077650253	13.929370990930241
120	-9.106435974977897	-5.924125063564347	0.41728402820841565	1.2136908591155433	1.0000000099685178	0.5592429582443129	-0.5000000079018461	13.983480095089481
121	-9.0463993411419	-5.897509690617977	0.43196389691616827	1.2677999638155277	1.0000000099670907	0.5321884057371165	-0.5000000079899638	14.037589199248721
122	-8.98410100878935	-5.868790150737621	0.4463908776475891	1.3219090685153339	1.0000000099655284	0.5051338532251514	-0.5000000080406383	14.091698303407961
