	x	y	theta	v	a	sigma	omega	t
0	-8.85572139303482	0.621890547263682	-0.98971402799757	0.00010000999912227735	1.0000000099895674	0.564197525070007	0.0014643099119859863	0.08714060792225081
1	-8.855716609156088	0.62188326272111	-0.9897120583842257	0.11150606513310869	1.0000000099891808	0.5643251259259199	-0.49999939318791686	0.17428121584450162
2	-8.850382812079756	0.613761379310366	-0.9875154194557308	0.19864667395080043	1.0000000099887647	0.5207548748427683	-0.49999976652598227	0.26142182376675244
3	-8.840848958357128	0.5993132521697759	-0.9839695218011284	0.28578728275572873	1.000000009988315	0.47718459122671064	-0.4999998670840275	0.34856243168900325
4	-8.82705925692692	0.5785759116867479	-0.9793709013163138	0.37292789155636924	1.0000000099878283	0.4336142988479637	-0.4999999084044358	0.43570303961125406
5	-8.808940629287656	0.5515984961811708	-0.973997230627145	0.4600685003548381	1.0000000099872992	0.39004400286853125	-0.4999999282942653	0.5228436475335049
6	-8.7864097742454	0.5184379670406287	-0.9681109733206075	0.5472091091519793	1.000000009986722	0.34647370515588694	-0.49999993785607605	0.6099842554557557
7	-8.759379700643521	0.4791549962047359	-0.9619624880988015	0.6343497179482122	1.0000000099860897	0.3029034066100206	-0.49999994102055295	0.6971248633780065
8	-8.727765809020681	0.43380990677102826	-0.9557927091355388	0.7214903267437736	1.0000000099853943	0.25933310778839974	-0.4999999389119257	0.7842654713002573
9	-8.691491603019387	0.3824585882989975	-0.9498355016305884	0.8086309355388092	1.0000000099846258	0.215762809150526	-0.4999999308472015	0.871406079222508
10	-8.650494113852336	0.32514834043477125	-0.9443197716885436	0.895771544333413	1.0000000099837718	0.17219251121541726	-0.4999999138384544	0.9585466871447588
11	-8.604729126509955	0.2619136244307757	-0.9394713951979115	0.982912153127648	1.0000000099828172	0.1286222147624611	-0.4999998798955861	1.0456872950670095
12	-8.554176304786083	0.19277172407742424	-0.9355150199811981	1.0700527619215559	1.0000000099817434	0.08505192126730717	-0.4999998060061146	1.1328279029892603
13	-8.49884432366046	0.11771833724201294	-0.9326757881843741	1.1571933707151647	1.0000000099805264	0.04148163421092676	-0.4999996066165039	1.219968510911511
14	-8.438776132124385	0.03672313820996399	-0.9311810210195233	1.244333979508491	1.0000000099791355	-0.0020886354705217077	-0.49999873423003516	1.3071091188337618
15	-8.374054487169737	-0.05027462907628518	-0.9312619050521144	1.3314745883015418	1.0000000099775306	-0.04565882913168291	-0.20796417805018405	1.3942497267560126
16	-8.30480792034786	-0.1433704442746665	-0.9331552168834767	1.418615197094317	1.000000009975658	-0.06378095403303423	0.4999849366622577	1.4813903346782633
17	-8.231217321842712	-0.24269858061693117	-0.9359749476144185	1.5057558058868072	1.0000000099734452	-0.020211962700315823	0.28005323606068394	1.568530942600514
18	-8.15340390122607	-0.3483479322991975	-0.9369222414997628	1.5928964146789948	1.0000000099707897	0.0041920465406233625	-0.03882105900466924	1.6556715505227648
19	-8.071193197472892	-0.4601893166638081	-0.9367144256208509	1.6800370234708504	1.0000000099675441	0.0008091558587592331	-0.00954908240668429	1.7428121584450156
20	-7.9844605826627335	-0.5781310470795888	-0.9366721184792214	1.767177632262331	1.0000000099634871	-2.295698726063165e-05	9.23823503795815e-05	1.8299527663672663
21	-7.8932240489288334	-0.7021863508052044	-0.9366733810555802	1.8543182410533718	1.0000000099582709	-1.4906733086432915e-05	0.0001799797773041141	1.917093374289517
22	-7.797488750323942	-0.8323590182284201	-0.9366742413147284	1.9414588498438774	1.000000009951316	7.768141220690704e-07	1.5788366884336346e-05	2.004233982211768
23	-7.697254647463405	-0.9686490203835618	-0.936674194378536	2.0285994586337	1.0000000099415793	2.152622010580093e-06	8.460745564698162e-06	2.091374590134019
24	-7.592521621680939	-1.1110562699976945	-0.9366740584762895	2.115740067422602	1.0000000099269741	2.8898965225481637e-06	-3.078862432086473e-05	2.17851519805627
25	-7.483289659188713	-1.2595807569304929	-0.9366738681901492	2.2028806762101603	1.000000009902632	2.0695708213606554e-07	2.300695895146488e-05	2.265655805978521
26	-7.369558749914082	-1.4142224737739046	-0.9366738540017361	2.2900212849955297	1.000000009853948	2.211797471592346e-06	3.25067477716577e-07	2.352796413900772
27	-7.251328919838396	-1.5749814396356134	-0.9366736963686311	2.37716189377659	1.0000000097078954	2.24012404922616e-06	-6.461596499381893e-05	2.439937021823023
28	-7.128600144850782	-1.7418576367828627	-0.9366735306415878	2.464302502544858	0.40965427348794897	-3.3905504217831627e-06	0.00011820244867004513	2.527077629745274
29	-7.0013724216231426	-1.9148510627666189	-0.9366737906735776	2.500000024974546	-3.612521465553663e-15	6.909682813161694e-06	-0.00015245459929488347	2.614218237667525
30	-6.872301742005485	-2.090350479555491	-0.9366732530718214	2.500000024974546	1.886663048875111e-15	-6.37530364984285e-06	0.00010462562655501665	2.701358845589776
31	-6.74323096803905	-2.265849826955713	-0.9366737490966797	2.500000024974546	-1.253167401183107e-15	2.7418370523387157e-06	2.876702368464034e-05	2.788499453512027
32	-6.614160281124671	-2.4413492383782267	-0.9366735357704744	2.500000024974546	3.2382051578293785e-16	5.248612984335429e-06	-0.0002563980087533574	2.875640061434278
33	-6.485089556771671	-2.616848622266576	-0.9366731274067862	2.500000024974546	-1.8900801935133483e-15	-1.709406536836679e-05	0.0005455240738815735	2.962780669356529
34	-6.356018760751105	-2.7923479534471136	-0.936674457395414	2.500000024974546	-1.2889592255395466e-15	3.0443234065623454e-05	-0.0008603235884412024	3.04992127727878
35	-6.226948198142769	-2.9678474562901873	-0.9366720887865293	2.500000024974546	-1.2875164627755778e-15	-4.45258864405479e-05	0.0011241769301945064	3.137061885201031
36	-6.097877219845113	-3.143346653415087	-0.9366755530837203	2.500000024974546	-2.5027051345708834e-15	5.343557466816859e-05	-0.0012263768061836096	3.2242024931232818
37	-5.968806849529607	-3.3188462976791615	-0.9366713955761202	2.500000024974546	2.4135636783214064e-15	-5.3431645763737396e-05	0.001029451389097953	3.3113431010455328
38	-5.839735749574112	-3.4943454053306735	-0.9366755527780354	2.500000024974546	4.862930711947485e-16	3.627537410806449e-05	-0.00043539429261592224	3.3984837089677837
39	-5.710665379204959	-3.669845049555293	-0.9366727304046556	2.500000024974546	-1.2433479355606217e-15	-1.6651492360624291e-06	-0.0006006768124464968	3.4856243168900347
40	-5.581594513510796	-3.8453443294944356	-0.9366728599601183	2.500000024974546	-1.9853290839144174e-15	-5.4008491837225185e-05	0.0021085510875409716	3.5727649248122857
41	-5.452523670553524	-4.020843626155412	-0.9366770620430318	2.500000024974546	-1.8688538395714912e-15	0.0001297319317652217	-0.004059127179113124	3.6599055327345367
42	-5.323453565059988	-4.196343465181224	-0.9366669683648378	2.500000024974546	5.172252909557334e-16	-0.00022398287825445927	0.006390770401317855	3.7470461406567876
43	-5.194381688134127	-4.3718420014059864	-0.9366843951547454	2.500000024974546	-1.2197549181769977e-15	0.00033291273960452887	-0.008761123459743414	3.8341867485790386
44	-5.065312869603986	-4.547342786912583	-0.9366584931727139	2.500000024974546	-9.19114438179265e-16	-0.00043053688475492517	0.012753670494439009	3.9213273565012896
45	-4.936239505298949	-4.722840229222089	-0.9366919907160736	2.500000024974546	3.3528389766348707e-16	0.0006808257153654966	-0.02387546514442977	4.008467964423541
46	-4.80717201979951	-4.898341995073749	-0.9366390196656409	2.500000024974546	9.535071148756184e-16	-0.0013996968317439066	-0.25647690557811514	4.095608572345792
47	-4.678095237968262	-5.073836923838907	-0.9367479219100127	2.500000024974546	-1.595480523690746e-15	-0.023749250301835723	0.49992196903558467	4.1827491802680425
48	-4.5490375686940006	-5.249345908314616	-0.9385960587908513	2.5000000249745455	-1.5063280673862196e-16	0.019814253993610618	0.49999925297230735	4.2698897881902935
49	-4.420304484267482	-5.425093109157856	-0.9370542265124937	2.5000000249745455	7.341105522642275e-15	0.06338449285828879	0.49999966467934326	4.3570303961125445
50	-4.29130058025636	-5.600641616357682	-0.9321160371561801	2.500000024974546	2.8196100956701724e-12	0.10695476759936838	0.4999992999302632	4.4441710040347955
51	-4.161431360921727	-5.775550940007427	-0.9237626393978299	2.5000000249747916	1.3971037630718648e-14	0.15052501055599138	-0.17556004266498024	4.5313116119570465
52	-4.030105602489464	-5.949369324542559	-0.9119619131678115	2.500000024974793	8.493877948196324e-12	0.13522660171130915	-0.4999999043922379	4.618452219879297
53	-3.8967378524128407	-6.121625903138879	-0.9013761235585784	2.500000024975533	1.6753363171945785e-14	0.09165630608150206	-0.4999998807874135	4.705592827801548
54	-3.7615541369468573	-6.292461053804847	-0.8942248488927389	2.5000000249755345	1.9108860046055077e-15	0.04808601250863376	0.019191946668807316	4.792733435723799
55	-3.6251521994910423	-6.462325108532595	-0.8904806729591621	2.500000024975535	-1.1962798298786874e-14	0.04975841040856486	0.49999992076233446	4.87987404364605
56	-3.488115218713805	-6.631677260953846	-0.8866060656332412	2.5000000249755336	-1.3158021930821168e-15	0.09332870746487214	0.4999999670170235	4.967014651568301
57	-3.35042309512611	-6.80049717900904	-0.8793235516905692	2.500000024975533	2.1056082286499696e-14	0.1368990085518414	0.49999997781241423	5.054155259490552
58	-3.2115052002339133	-6.968309884454641	-0.868605202943176	2.500000024975535	6.657626602766556e-14	0.1804693105795277	0.49999997283237746	5.141295867412803
59	-3.0707966442557058	-7.134624008643716	-0.854409498166954	2.5000000249755407	-1.6906972306693507e-11	0.22403961217325047	0.008863764502738439	5.228436475335054
60	-2.9277413987828482	-7.298923985432977	-0.8366806716509327	2.5000000249740677	-1.544218487942631e-11	0.22481200600049897	-0.499999970925893	5.315577083257305
61	-2.781795941463152	-7.460662073457766	-0.8188886182772048	2.500000024972722	4.205760344056187e-14	0.18124170457290845	-0.4999999774470748	5.402717691179556
62	-2.63299608270065	-7.6197780301131495	-0.8046308087515346	2.500000024972726	3.243533067781348e-14	0.13767140257705804	-0.4999999701783956	5.489858299101807
63	-2.481942779941808	-7.776756325924208	-0.79385121755024	2.5000000249727288	2.088497994547273e-14	0.09410110121460488	-0.49999994629434485	5.576998907024058
64	-2.3292061241785555	-7.932097240098024	-0.7865080772997678	2.500000024972731	1.2407762247433944e-14	0.05053080193342261	-0.4999998696545964	5.664139514946309
65	-2.17533290643942	-8.086312409561678	-0.7825732233697767	2.500000024972732	4.92151635757192e-15	0.00696050933067476	-0.49999944968428284	5.75128012286856
66	-2.0208540673143314	-8.239920918091201	-0.7820316583553342	2.5000000249727323	1.5981159312722677e-15	-0.03660974667560455	0.005032724649551927	5.838420730790811
67	-1.866292061852924	-8.393445743763948	-0.7848813205182772	2.5000000249727323	3.1562601004448676e-15	-0.036171191990144166	0.40851294593144294	5.925561338713062
68	-1.712168177251901	-8.547410394984901	-0.7876968160956327	2.5000000249727323	1.2946902367277684e-15	-0.000573125537556273	-0.0003907108199945993	6.012701946635313
69	-1.5584783897435248	-8.701808370508358	-0.7877414076257424	2.5000000249727323	-3.915090529165225e-15	-0.0006071723159339673	0.05348399036362401	6.099842554557564
70	-1.4047954872299402	-8.856213199141076	-0.787788648136236	2.5000000249727323	-0.6892650880743438	0.004053455118451574	0.1276407570242368	6.186983162479815
71	-1.2511198790507545	-9.01062528766028	-0.7874732709208174	2.4399370461783505	-1.0000000096870878	0.01517614828120424	-0.4999905370207475	6.274123770402066
72	-1.101088836138045	-9.16128028733774	-0.7863207838027786	2.3527964374119	-1.0000000098435435	-0.02839333107015633	-0.4999990287910208	6.361264378324317
73	-0.9562487139242001	-9.306387921343863	-0.7884003846370914	2.2656558286317554	-1.0000000098956954	-0.0719635503995409	-0.49999938035823577	6.448404986246568
74	-0.8170639315086766	-9.446410949898217	-0.7934833796290944	2.178515219847004	-1.000000009921772	-0.11553380036470633	0.49999839668163787	6.535545594168819
75	-0.6839184977735248	-9.581727000079153	-0.8013514925140957	2.091374611059917	-1.0000000099374173	-0.07196363611771767	0.4999998947711897	6.62268620209107
76	-0.557124921978085	-9.712632076089884	-0.8060434934994996	2.004234002271402	-1.000000009947847	-0.028393341326294584	0.49999996775965816	6.709826810013321
77	-0.43620436199540014	-9.838651518387225	-0.8078150059615975	1.9170933934819108	-1.000000009955296	0.015176959825388301	0.499999987959859	6.796967417935572
78	-0.3207549377499858	-9.959396563949282	-0.8069094319384362	1.8299527846917008	-1.000000009960882	0.05874726273732937	0.49999999621563374	6.884108025857823
79	-0.2104488863927483	-10.074553355286662	-0.8035598539380556	1.7428121759009305	-1.000000009965226	0.10231756636868419	0.5000000003322252	6.971248633780074
80	-0.1050287354472539	-10.183873990806179	-0.7979907851719128	1.6556715671097044	-1.000000009968701	0.1458878703587619	0.5000000026447315	7.058389241702325
81	-0.00430277464364642	-10.287169249469981	-0.7904198000730905	1.568530958318093	-1.000000009971544	0.1894581745503534	0.500000004044233	7.145529849624576
82	0.09185996438007975	-10.384302659685083	-0.7810590810671795	1.4813903495261458	-1.000000009973913	0.23302847886389894	0.500000004926584	7.232670457546827
83	0.18353506282894136	-10.475185618721094	-0.7701169156757127	1.3942497407338965	-1.0000000099759174	0.2765987832543336	0.5000000054861088	7.319811065469078
84	0.2707482833970759	-10.559773302735591	-0.7577991774737648	1.3071091319413688	-1.0000000099776356	0.3201690876935261	0.5000000058232275	7.406951673391329
85	0.3534812586767763	-10.638061138240785	-0.7443108253304508	1.2199685231485766	-1.000000009979125	0.36373939216209566	0.5000000059883861	7.49409228131358
86	0.431677223824546	-10.710081633428695	-0.7298574578815283	1.1328279143555278	-1.0000000099804283	0.4073096966450574	0.5000000060000073	7.581232889235831
87	0.5052467311229153	-10.775901392179613	-0.714646964585144	1.0456873055622224	-1.0000000099815787	0.4508800011290318	0.5000000058487697	7.668373497158082
88	0.5740732936187173	-10.835618154840393	-0.6988913214272395	0.958546696768655	-1.0000000099826016	0.49445030559982717	0.5000000054893481	7.755514105080333
89	0.6380189125226682	-10.889357727969061	-0.682808589028807	0.8714060879748119	-1.0000000099835171	0.5380206100393019	0.5000000048088462	7.842654713002584
90	0.6969294498813092	-10.937270680105568	-0.6666251845365905	0.7842654791806714	-1.0000000099843418	0.5815909144194766	0.500000003524386	7.929795320924835
91	0.7506398154411654	-10.979528692018988	-0.6505785176868775	0.6971248703862006	-1.0000000099850883	0.6251612186877221	0.5000000007669967	8.016935928847085
92	0.7989789458921625	-11.016320457397814	-0.6349201079413719	0.6099842615913516	-1.0000000099857673	0.6687315227156861	0.49999999216080643	8.104076536769336
93	0.841774567234625	-11.047847032968837	-0.619919336775018	0.5228436527960546	-1.0000000099863882	0.7123018259937005	0.43261325986499705	8.191217144691587
94	0.8788577486405389	-11.074316534643145	-0.6058680418490685	0.4357030440002064	-1.0000000099869575	0.7500000084535631	-2.4721276562620595e-09	8.278357752613838
95	0.9100672812832311	-11.095938067218725	-0.5932357839074162	0.3485624352036481	-1.000000009987481	0.7500000082381404	-4.9861390944646145e-09	8.365498360536089
96	0.9352514125430688	-11.112918524099431	-0.5831299775583457	0.26142182640612327	-1.000000009987964	0.7500000078036452	-1.0953994355549238e-08	8.45263896845834
97	0.9542672452171556	-11.125462340236375	-0.5755506228030329	0.17428121760717857	-1.0000000099884108	0.7500000068491074	-3.473550265164005e-08	8.53977957638059
98	0.9670074849517347	-11.133728559887961	-0.5704977196423864	0.08714060880590181	-1.0000000099888253	0.7500000038222345	-0.09063675980988897	8.626920184302842
99	0.9733984076140539	-11.137829429489472	-0.5679712680773019	0.0	0.0	0.7421018614722978	0.0	8.714060792225093
100	0.9733984076140539	-11.137829429489472	-0.5679712680772491	-9.999111812370034e-09	-1.0000000099831776	-0.7497237176801449	-0.005112582304920866	8.768101321561085
101	0.9733984071576486	-11.137829429198511	-0.5679712678975185	-0.1812753494704361	-1.0000000099827724	-0.7500000043341767	-2.0077463921412777e-08	8.822141850897077
102	0.9651402558748848	-11.132559819895045	-0.564711939298337	-0.2353158793840951	-1.0000000099823472	-0.7500000054191734	0.3210128344662095	8.87618238023307
103	0.9543980041050172	-11.12575424811381	-0.5604809626132862	-0.2893564092784011	-1.000000009981901	-0.7326523019209722	0.4999999346214459	8.930222909569062
104	0.9411534948421709	-11.11744173252524	-0.5554564379222376	-0.3433969391662383	-1.0000000099814321	-0.7056320407860674	0.4999999733042743	8.984263438905055
105	0.9253860578958366	-11.10765586215147	-0.5498099521327915	-0.39743746905082583	-1.0000000099809385	-0.6786117775607217	0.4999999858668348	9.038303968241047
106	0.9070736321916018	-11.096433206378435	-0.5436246116106075	-0.45147799893344975	-1.0000000099804185	-0.6515915136564882	0.4999999919295124	9.09234449757704
107	0.8861927656938831	-11.083813492112196	-0.5369785776769543	-0.5055185288147521	-1.0000000099798698	-0.6245712494246238	0.49999999540208917	9.146385026913032
108	0.8627191304894573	-11.069838933608604	-0.5299456989684905	-0.5595590586950989	-1.0000000099792896	-0.5975509850050992	0.49999999757865066	9.200425556249025
109	0.8366279915615256	-11.05455359452544	-0.5225960605757194	-0.613599588574718	-1.0000000099786752	-0.5705307204679516	0.4999999990062203	9.254466085585017
110	0.8078946314652264	-11.03800277428827	-0.5149964637600745	-0.6676401184537606	-1.0000000099780235	-0.5435104558536572	0.499999999950765	9.30850661492101
111	0.7764947332087657	-11.020232412472234	-0.5072108475323308	-0.7216806483323318	-1.000000009977331	-0.5164901911883187	0.5000000005513155	9.362547144257002
112	0.7424047237290099	-11.001288506195003	-0.4993006613800353	-0.7757211782105072	-1.0000000099765933	-0.4894699264905261	0.5000000008800122	9.416587673592995
113	0.7056020804406283	-10.981216536553754	-0.49132519683877646	-0.8297617080883425	-1.0000000099758064	-0.4624496617749703	0.5000000009667603	9.470628202928987
114	0.6660656034429732	-10.960060900969712	-0.48334188432322284	-0.8838022379658801	-1.0000000099749644	-0.43542939705472666	0.5000000008068326	9.52466873226498
115	0.623775656094929	-10.937864348966094	-0.47540656060203224	-0.9378427678431519	-1.0000000099740618	-0.4084091323431256	0.5000000003528573	9.578709261600972
116	0.5787143768189428	-10.914667419430076	-0.4675737114646855	-0.9918832977201828	-1.0000000099730915	-0.3813888676560578	0.4999999995015761	9.632749790936964
117	0.5308658651740902	-10.890507877821506	-0.4598966934484882	-1.045923827596992	-1.0000000099720454	-0.3543686030149939	0.49999999801040784	9.686790320272957
118	0.48021634544634456	-10.865420152110959	-0.452427937939702	-1.099964357473594	-1.0000000099709143	-0.3273483384545139	0.4999999952982083	9.74083084960895
119	0.42675431124386154	-10.839434766474698	-0.44521914050997907	-1.15400488735	-1.0000000099696877	-0.3003280740406031	0.4999999895992383	9.794871378944942
120	0.37047065485772407	-10.812577771958706	-0.438321437979197	-1.2080454172262172	-1.0000000099683524	-0.2733078099346682	0.49999997204698526	9.848911908280934
121	0.31135878545603235	-10.784870173461318	-0.4317855753929773	-1.2620859471022514	-1.0000000099668933	-0.24628754677726702	-0.30483861684398555	9.902952437616927
122	0.24941474052360638	-10.756327352485924	-0.4256620648503335	-1.3161264769781051	-1.000000009965294	-0.2627611869935677	-0.4999999774489861	9.95699296695292
123	0.18463729534332868	-10.726958485193391	-0.4188295642002918	-1.3701670068537788	-1.0000000099635329	-0.28978145044289594	-0.4999999948916612	10.011033496288912
