	x	y	theta	v	a	sigma	omega	t
0	7.96019900497512	-0.820895522388057	-0.292805411327151	0.00010000996546251496	1.0000000091920316	0.48779399781839883	0.4999851769004775	0.06555174590832655
1	7.960205281790436	-0.8208974146347978	-0.2928041691931083	0.06565175647658045	1.0000000083458696	0.5205688990925087	0.4999999909063752	0.1311034918166531
2	7.9643257008644595	-0.8221395941850873	-0.2919229829603169	0.1312035029321092	-0.3172894735801988	0.5533447714505789	0.5000000038325493	0.19665523772497964
3	7.972562446509689	-0.8246148039007463	-0.290025573810711	0.11040462398059332	-1.0000000082666791	0.5861206446560036	0.5000000061426634	0.2622069836333062
4	7.979497411371755	-0.8266844792098984	-0.2883094454143966	0.044852877530260925	-1.0000000091120684	0.6188965180128788	0.5000000066738723	0.32775872954163277
5	7.982316242423975	-0.827520467276108	-0.5939193692824871	-0.02069886897559378	-1.0000000090276586	0.6516723914045838	0.5000000064365924	0.39331047544995934
6	7.981191750445343	-0.8267611573480401	-0.5942890372778303	-0.08625061547589645	-1.000000008889931	0.6844482647807307	0.5000000048291399	0.4588622213582859
7	7.976507247636454	-0.8235954386743644	-0.5959368303837169	-0.1518023619671463	-1.000000008652708	0.7172241380514895	0.4999999798035751	0.5244139672666125
8	7.968271645445694	-0.8180101487471739	-0.5990364274264975	-0.21735410844281527	-1.0000000081865659	0.7500000096817482	1.5635206209444133e-09	0.5899657131749391
9	7.95650456560413	-0.8099764906180054	-0.6037769031775971	-0.2829058548878912	-1.0000000072502202	0.7500000097842396	5.366109498207097e-10	0.6555174590832656
10	7.9412383972443035	-0.7994474775307362	-0.609947057242444	-0.3484576012715521	-1.0000000044102413	0.7500000098194154	3.4770493043146417e-10	0.7210692049915922
11	7.922515301092901	-0.7863630278471402	-0.617546889630718	-0.4140093474690119	0.9999996496565615	0.750000009842208	-5.541358108088751e-10	0.7866209508999188
12	7.90038880879617	-0.7706485253372185	-0.6265764003435855	-0.3484576245263089	0.8621027137829561	0.7500000098058835	-6.814955899580977e-10	0.8521726968082454
13	7.888276207274508	-0.7572545454322406	-0.6341762332271392	-0.29194528648552975	0.008017442677607093	0.7500000097612103	-1.2184289052784242e-10	0.9177244427165719
14	7.876408090227892	-0.7459152926326642	-0.6405435365435289	-0.2914197291202927	0.000735794277684318	0.7500000097532233	-1.2358746465011905e-10	0.9832761886248985
15	7.865254196041271	-0.7344986984242112	-0.6468993774940321	-0.2913714965207611	0.0007399228574765889	0.7500000097451219	-1.3206805685424741e-10	1.048827934533225
16	7.853949316561979	-0.7229868931870781	-0.6532541664939208	-0.29132299328561606	0.0012409384845393178	0.7500000097364646	-1.419050146795934e-10	1.1143796804415516
17	7.8406255089203505	-0.7113804007642289	-0.6596078976409153	-0.2912416476013897	0.00832685402573182	0.7500000097271624	-1.5898007930132608e-10	1.1799314263498781
18	7.827349789708129	-0.6996810572138314	-0.6659598546440213	-0.2906958077820792	0.0013123044783836908	0.7500000097167411	-1.6399768986116009e-10	1.2454831722582047
19	7.815149616291934	-0.6879082264620127	-0.6722999069235093	-0.29060978393235787	0.001110103059048029	0.7500000097059907	-1.7676209593150605e-10	1.3110349181665313
20	7.803048007436487	-0.6760441462028803	-0.6786380830289375	-0.2905370147386991	0.0014794226891301626	0.7500000096944037	-1.9171314991168314e-10	1.3765866640748579
21	7.791124023706203	-0.6640888316671558	-0.6849746720433708	-0.2904400359984902	0.0005183734320228379	0.7500000096818367	-2.071187244845728e-10	1.4421384099831844
22	7.7772829482218695	-0.6520438376071853	-0.6913091459585979	-0.2904060557149886	-0.13343478829849786	0.7500000096682596	-7.763677139503819e-11	1.507690155891511
23	7.763518648827579	-0.6399071082128599	-0.6976428787659561	-0.2991529390528631	0.002044568420073612	0.7500000096631704	-2.4925092742989276e-10	1.5732419017998376
24	7.748490366884028	-0.6273093894573007	-0.7041673803974935	-0.2990189140232983	0.002909265535135748	0.7500000096468316	-2.7589477209857326e-10	1.6387936477081642
25	7.733551293996394	-0.6146195752109853	-0.7106889589533042	-0.2988282065881592	3.993414652062516e-05	0.7500000096287461	-3.017691191069577e-10	1.7043453936164907
26	7.7187047706493885	-0.6018407603608924	-0.7172063781946775	-0.29882558883513344	-0.417585383262577	0.7500000096089646	1.6295988089649724e-10	1.7698971395248173
27	7.7039419762456705	-0.5889655693189629	-0.7237237403425139	-0.32619903977379305	-0.9999992807149897	0.750000009619647	5.833891133752411e-10	1.8354488854331439
28	7.687918798993222	-0.5748062376571778	-0.7308381152614716	-0.39175073853173165	-0.9999998443436212	0.7500000096578892	2.881741591783472e-10	1.9010006313414705
29	7.668797128480588	-0.5576650299819019	-0.7393821674773899	-0.45730247423651194	-0.7860375952117659	0.7500000096767796	-0.13442044995282498	1.966552377249797
30	7.646647590647114	-0.5374655985370526	-0.7493558977958935	-0.5088286109522256	0.8717296454870823	0.741188514496589	-0.5000000049132093	2.0321041231581236
31	7.622227759420852	-0.5147455318808433	-0.7602589378878035	-0.4516852107305009	0.9999996852494542	0.7084126412203186	-0.5000000070796762	2.09765586906645
32	7.600771550854175	-0.4943418696414539	-0.7693189241795786	-0.38613348545462156	0.13503746849210563	0.6756367678020045	-0.5000000077651977	2.1632076149747763
33	7.582587997560033	-0.4767338667979763	-0.7765641358949757	-0.3772815436319234	-0.9999999132737497	0.6428608943387333	-0.5000000081244467	2.2287593608831027
34	7.564946408659726	-0.45940124889451495	-0.7831798037648063	-0.4428332838551948	-0.9999994103056282	0.6100850208518962	-0.500000008370652	2.294311106791429
35	7.544374679072129	-0.4389205883410243	-0.7904270310792889	-0.508384991108026	0.7162509285446073	0.5773091473489045	-0.5000000085355362	2.3598628526997554
36	7.520928776538917	-0.4152376791711851	-0.7981791348902899	-0.461433492233467	0.9999813184513612	0.544533273835091	-0.5000000086258118	2.4254145986080817
37	7.499815476628717	-0.39357766490139223	-0.8047213886368204	-0.39588297093327	0.7232379064176307	0.5117574003153511	-0.5000000086735334	2.490966344516408
38	7.481823460794607	-0.374876530723003	-0.8099270141927553	-0.34847346346051145	0.3354768320400858	0.478981526792478	-0.5000000086979202	2.5565180904247344
39	7.466072010353821	-0.35833275654410246	-0.8141637218237421	-0.3264823714084894	-0.0709175964061774	0.4462056532680036	-0.5000000087078496	2.622069836333061
40	7.451380385815278	-0.3427706256387594	-0.8178201959304298	-0.33113114366853635	-0.9011767978554414	0.41342977974287715	-0.5000000087060428	2.687621582241387
41	7.436537379938029	-0.32693252721730254	-0.821221212381663	-0.3902048561400356	-0.9999979351545188	0.3806539062178694	-0.5000000086881413	2.7531733281497135
42	7.419109961832137	-0.30820953693314385	-0.8248768629010428	-0.45575646669413594	-0.9999982602073804	0.3478780326940371	-0.5000000086447679	2.81872507405804
43	7.3988349415252435	-0.2862669540478627	-0.8287460308532016	-0.5213080985560189	0.9999987415354871	0.31510215917305273	-0.5000000085606527	2.884276819966366
44	7.3757410410860835	-0.26107881834361263	-0.8327242461407656	-0.4557564351422381	0.9999998642156129	0.2823262856575905	-0.5000000084518924	2.9498285658746926
45	7.355638836539656	-0.23897780839065663	-0.8358193043979537	-0.3902046981348139	0.1139093103333014	0.24955041214926707	-0.5000000083501238	3.015380311783019
46	7.338486592444198	-0.22000242273519283	-0.8381475331339067	-0.38273774396725263	-0.9999997358208911	0.21677453864762244	-0.500000008241822	3.0809320576913453
47	7.321705952750481	-0.20135103023332393	-0.8401209282843795	-0.4482894725581781	-0.9999997689006224	0.1839986651530843	-0.5000000081030629	3.1464838035996716
48	7.302094431278744	-0.17946645840814984	-0.842074096374072	-0.5138412033175377	-0.9999994082213832	0.15122279166765007	-0.5000000079253624	3.212035549507998
49	7.279664226145042	-0.15433792778434755	-0.843907257834739	-0.5793929104337431	0.9999997307854822	0.11844691819387308	-0.5000000076962867	3.2775872954163243
50	7.2544245404306995	-0.125957386269045	-0.8455214708776878	-0.5138411821728975	0.07551948982386336	0.0856710447351216	-0.5000000074603741	3.3431390413246507
51	7.232081096785221	-0.10075168083682884	-0.846554597449475	-0.5088907477648372	-0.999999129069186	0.05289517129184233	-0.5000000071898938	3.408690787232977
52	7.209978715330578	-0.0757659636221998	-0.8471853690276054	-0.5744424365821285	0.8077663839950286	0.020119297866300775	-0.5000000068307795	3.4742425331413034
53	7.185047057575462	-0.04754603212596232	-0.8474559792332581	-0.5214919398251986	0.9999997104222875	-0.012656575535692481	-0.5000000064397493	3.5397942790496297
54	7.162420463793453	-0.021921211042285515	-0.8473014490784274	-0.45594021289919606	0.9999984553255883	-0.04543244891204638	-0.5000000060311756	3.605346024957956
55	7.142634579275352	0.00047950344222244057	-0.8468161614374846	-0.39038856824697393	-0.8680898373675442	-0.07820832226161202	-0.5000000056172333	3.6708977708662824
56	7.125684054113695	0.019651388544204132	-0.8460999141020641	-0.4472933726916917	0.9999971989370613	-0.11098419558403846	-0.5000000050526409	3.736449516774609
57	7.106247015253898	0.041603938287592075	-0.8449329214637441	-0.3817418103979312	0.9999996293056711	-0.1437600688694499	-0.5000000044673405	3.802001262682935
58	7.089636652926071	0.06031993517996908	-0.8436392005661028	-0.3161900887892646	0.999999861552032	-0.1765359421164898	-0.5000000038859159	3.8675530085912615
59	7.075858535369425	0.07580425715936899	-0.8423186582915658	-0.25063835195644274	-0.8000792321142993	-0.20931181532541296	-0.5000000033416553	3.933104754499588
60	7.0649206636084845	0.08806397508130236	-0.8410722064519995	-0.30308494248652834	-0.999999815800839	-0.24208768849865636	-0.5000000025604197	3.998656500407914
61	7.051675551210266	0.10287256630115109	-0.8393200801248424	-0.36863667632027924	-0.9999998960298192	-0.27486356162068537	-0.5000000013691113	4.064208246316241
62	7.0355342295331775	0.12085573114141382	-0.8368863303932179	-0.4341884154131806	-0.9999999187358483	-0.30763943466461846	-0.4999999994671681	4.129759992224567
63	7.016471131703841	0.14199036751592414	-0.8336566603532425	-0.4997401559945022	-0.9999999252589511	-0.3404153075838719	-0.4999999961443402	4.195311738132894
64	6.994451527739356	0.16624482321862052	-0.8295126177359848	-0.5652918970034247	-0.999999922468275	-0.37319118028530374	-0.4999999892527518	4.26086348404122
65	6.969430094424005	0.1935773210064581	-0.8243308970948435	-0.6308436378294136	-0.9999999096788978	-0.40596705253497534	-0.4999999680203158	4.326415229949546
66	6.941349476646525	0.22393422132666768	-0.8179825653089309	-0.6963953778170361	-0.9999998782958477	-0.438742923392819	-0.45885053361017186	4.391966975857873
67	6.91013885233219	0.2572480818036902	-0.8103321950093915	-0.7619471157474444	-0.9999997908536068	-0.4688213769819331	0.4999999645641231	4.457518721766199
68	6.8757125184795385	0.29343546528212666	-0.8012974307096189	-0.8274988479458607	-0.9999996042671276	-0.4360455063506492	0.49999998481794644	4.5230704676745255
69	6.83797088151885	0.33239672486729543	-0.7922704835549683	-0.8930505679132071	-0.9999990365571811	-0.4032696343916884	0.49999999079107216	4.588622213582852
70	6.796861579811076	0.37407497811358514	-0.7833502393666135	-0.958602250666175	-0.0021473271372324	-0.37049376204117646	0.49999999275951607	4.654173959491178
71	6.75233746511376	0.41841710125130716	-0.7746330012515041	-0.9587430117090568	0.9999990677122395	-0.3377178895616284	0.4999999924588114	4.7197257053995045
72	6.707421911728126	0.4623758711743138	-0.7667508016782872	-0.8931913269138205	0.9999996165897188	-0.3049420171017923	0.4999999901315108	4.785277451307831
73	6.665255850279527	0.5029979728366493	-0.7601689275436442	-0.8276396061387068	0.9999997923900189	-0.27216614479451606	0.49999998462137546	4.850829197216157
74	6.6259374763116545	0.5403808228528292	-0.7547612067371885	-0.7620878738395761	0.9999998743891533	-0.23939027284844094	0.4999999707266037	4.916380943124484
75	6.589547630333959	0.5746065455706074	-0.7504066226973282	-0.6965361361652584	0.9999999191823722	-0.20661440181319501	0.49999990557695095	4.98193268903281
76	6.556151989436773	0.6057431806485536	-0.7469886174854024	-0.6309843955546665	0.9999999625704411	-0.17383853504862562	-0.4999998741863759	5.047484434941136
77	6.525803014565693	0.6338459460040198	-0.7443944573202819	-0.5654326520999087	0.9999999769080873	-0.2066143997554876	-0.4999999699822077	5.113036180849463
78	6.498541698022766	0.6589585340009771	-0.741619796205591	-0.49988090770529153	0.9999999838913515	-0.23939027074193697	-0.4999999865135018	5.178587926757789
79	6.474379332674987	0.6810928120855881	-0.7387634675889001	-0.43432916285290774	0.9999999878891086	-0.2721661428120449	-0.49999999318919464	5.244139672666115
80	6.4533306460813815	0.7002644740460329	-0.7359256009435582	-0.36877741773846257	0.9999999903528988	-0.30494201531975934	-0.4999999966887264	5.309691418574442
81	6.435412639178708	0.7164918422224511	-0.7332081019500628	-0.3032256724625106	0.999999991893589	-0.3377178880568772	-0.499999998758765	5.375243164482768
82	6.420643428932737	0.7297946409471351	-0.73071516565216	-0.23767392708556287	0.9999999928006412	-0.3704937609296924	-0.500000000050009	5.440794910391094
83	6.409041089189203	0.7401927306860729	-0.7285538310553008	-0.17212218164915571	0.9999999932123933	-0.40326963388715303	-0.5000000008528549	5.506346656299421
84	6.400622481321192	0.7477047935669985	-0.7268345869909367	-0.10657043618575723	0.9999999931788289	-0.4360455068972434	-0.5000000013073811	5.571898402207747
85	6.395402063232244	0.7523469620864085	-0.725672040723781	-0.041018690724558965	0.9999999926802232	-0.46882137993712986	-0.5000000014767413	5.6374501481160735
86	6.39339066171195	0.7541313838399841	-0.7251856628671638	0.0245330547039545	0.9999999916167704	-0.5015972529881185	-0.5000000013731183	5.7030018940244
87	6.394594188911306	0.7530647161851081	-0.7255006248102828	0.09008480006275614	0.9999999897593334	-0.5343731260323143	-0.5000000009597905	5.768553639932726
88	6.3990122786368095	0.749146545912552	-0.7267487482020035	0.1556365452997986	0.9999999866097733	-0.5671489990494147	-0.5000000001291323	5.8341053858410525
89	6.406636812044685	0.7423677304038773	-0.7290695902803666	0.2211882903303806	0.9999999809701458	-0.5999248720120622	-0.49999999863334466	5.899657131749379
90	6.417450294886904	0.7327086585590704	-0.7326116942553049	0.28674003499127354	0.9999999692090907	-0.6327007448766557	-0.49999999585983834	5.965208877657705
91	6.431424039388698	0.7201374322451545	-0.7375340409093355	0.352291778881207	0.9999999331092176	-0.6654766175594377	-0.4999999899122264	6.030760623566032
92	6.448516092703304	0.7046079724958716	-0.7440077465740282	0.4178435204047285	0.625745261773686	-0.6982524898523392	-0.49999997090970827	6.096312369474358
93	6.468668840139075	0.6860580597098129	-0.7522180643426768	0.45886221480785644	-0.9999999411553476	-0.731028360899588	-0.2894148078051345	6.161864115382684
94	6.490631938659663	0.6655061318734048	-0.7618516990670958	0.3933104727568968	-0.9999999771718964	-0.7500000068429373	1.4477242854907725e-08	6.227415861291011
95	6.509286875365177	0.6477096557190578	-0.7704297689106658	0.3277587283449864	-0.9999999886357954	-0.7500000058939288	2.1343822626432403e-08	6.292967607199337
96	6.524704869431654	0.632746453350892	-0.7775781604562404	0.26220698318159436	-0.9999999942674426	-0.750000004494804	3.4669671917375814e-08	6.358519353107663
97	6.536953380034274	0.6206880269407239	-0.783296873687713	0.19665523764903478	-0.9999999976126233	-0.7500000022221465	6.601218115780959e-08	6.42407109901599
98	6.546087894054342	0.6115918210000925	-0.7875859085975448	0.13110349189718948	-0.9999999998273233	-0.7499999978949327	1.9095179187042928e-07	6.489622844924316
99	6.552151504844571	0.6055016207244194	-0.7904452651822075	0.06555174600016334	-1.0000000014006416	-0.7499999853777093	0.023644875276278794	6.555174590832642
100	6.555174590832604	0.6024478640312154	-0.7918749434398694	0.0	0.0	-0.7484500225215647	0.0	6.620726336740969
101	6.555174590832604	0.6024478640312154	-0.7918749434400469	0.00010000972775533887	0.18844430872653686	-0.1444222044280464	-0.04359948000148632	6.923215649225581
102	6.555195843143284	0.6024263346290246	-0.7918765147521754	0.05710239911608291	0.1358468935320702	-0.15761058115838214	-0.043588120059474426	7.225704961710193
103	6.567330222657415	0.5901337061608903	-0.7928569272452112	0.0981946325437685	0.08937443700567461	-0.1707955216276687	-0.018863245076590415	7.528194274194805
104	6.588176053250427	0.5689745645900044	-0.7946865778531685	0.12522944454731372	0.04988519781652625	-0.17650145166211476	0.01562633077868205	7.830683586679417
105	6.614711712479279	0.5419413208790946	-0.7970995351463981	0.14031918373799313	0.01948270638814192	-0.17177465360821384	0.049768008411824965	8.133172899164029
106	6.644371655445938	0.5115790030688094	-0.7997293749692569	0.14621249419868138	-0.0006685402991264481	-0.15672036295999256	0.07844902654081708	8.43566221164864
107	6.67519398751013	0.4798603211351727	-0.8022253374062517	0.1460102679032301	-0.01072439383763808	-0.13299037085657403	0.10062169982708949	8.738151524133253
108	6.705894534315498	0.44810878303066165	-0.8043355518519141	0.14276625338446858	-0.011714846565312768	-0.10255338205484531	0.11778335345874619	9.040640836617865
109	6.7358474044234935	0.4169994153531022	-0.8059228328629076	0.13922263750106423	-0.005017529570948236	-0.06692517644497789	0.13252785624001476	9.343130149102477
110	6.765008620821291	0.3866158911949832	-0.8069309255457611	0.13770488843077677	0.007883349722049054	-0.02683691632587725	0.1474695766089137	9.645619461587088
111	6.793821623243649	0.3565345345118666	-0.8073302613525558	0.14008951746827505	0.025249318888528355	0.017771054514948852	0.16448283230792282	9.9481087740717
112	6.823121356145004	0.3259205575251991	-0.8070612834742277	0.14772716657957066	0.044552893644077704	0.06752535337529308	0.18404223873766093	10.250598086556312
113	6.854027186227711	0.2936458251879497	-0.8059819888331569	0.16120394074716785	0.061606058320165316	0.12319616363917589	0.204476828612949	10.553087399040924
114	6.887790468793194	0.25846317103124344	-0.8038255864932858	0.17983911497332192	0.06953504229001586	0.18504821894533968	0.22116923145334969	10.855576711525536
115	6.925541337197843	0.2192947172728838	-0.8001887965121076	0.200872722109218	0.05814823734082481	0.2519495477104127	0.22629381786635241	11.158066024010148
116	6.967866296890413	0.17569884134611588	-0.7946026206299348	0.2184619424446375	0.014878796536423076	0.3204010090963233	0.21084327488486757	11.46055533649476
117	7.014161539106098	0.12854341212960127	-0.786771041391061	0.22296261937954068	0.028239492797755374	0.3841788463582509	0.1714372986934331	11.763044648979372
118	7.061785996674889	0.08078800956766509	-0.777033447561273	0.2315047641408485	-0.0036653997412214425	0.4360367969742462	0.09436324628574146	12.065533961463984
119	7.1117155293076575	0.03168685977291509	-0.765380136839422	0.23039601989314462	-0.06665523053907431	0.46458067046703533	-0.019536036432686338	12.368023273948596
120	7.1619719985023	-0.01659676762398054	-0.7529060336859034	0.21023352503387455	-0.18598281553498802	0.4586712282378361	-0.14561077835350625	12.670512586433208
121	7.208376411113871	-0.06007952636449944	-0.7416909998886595	0.15397571102874139	-0.2456857332872893	0.41462552400333336	-0.22382985543661948	12.97300189891782
122	7.242718171769695	-0.09154328170585799	-0.734369557209388	0.07965840247939017	-0.21669203390265107	0.3469193849187796	-0.22311465266802333	13.275491211402432
123	7.260603372020269	-0.10769035363143302	-0.7312582598198369	0.014111378123284727	-0.10590383056569855	0.2794295870279865	-0.1563965495536275	13.577980523887044
124	7.263780595329048	-0.11054091408238653	-0.7308208306345103	-0.0179233987740193	0.05925299848380318	0.23212130227854488	-0.06432819696656937	13.880469836371656
