	x	y	theta	v	a	sigma	omega	t
0	1.17953879144713	5.65298514028592	2.3100788895565363	0.00010000999909093657	1.0000000099752309	-0.7499916031457566	-0.00022397262935078008	0.03745413756610052
1	1.1795362676920738	5.652987908245221	2.31007764330489	0.03755414798365723	1.0000000099747124	-0.7499999918474275	-2.4033845302334316e-07	0.07490827513220104
2	1.1785885892243313	5.6540272886205525	2.3096096630756957	0.07500828594552798	1.000000009974172	-0.7500000008490969	-7.972207011234626e-08	0.11236241269830155
3	1.1766967277718405	5.656104166989288	2.308674948873329	0.1124624238998241	1.0000000099736077	-0.7500000038350183	-3.944828908779585e-08	0.14981655026440208
4	1.1738631086976545	5.6592207499553355	2.307273500697941	0.14991656185032082	1.0000000099730184	-0.75000000531252	-2.329964272667934e-08	0.1872706878305026
5	1.1700916159401638	5.663380559711316	2.305405318549639	0.18737069979852689	1.0000000099724025	-0.750000006185188	-1.519961481026619e-08	0.22472482539660313
6	1.1653876000155574	5.668588425190215	2.30307040242852	0.22482483774519593	1.0000000099717576	-0.7500000067544765	-1.0546012772202245e-08	0.26217896296270365
7	1.159757889054081	5.6748504697804725	2.3002687523346736	0.2622789756907579	1.000000009971082	-0.7500000071494684	-7.609934496529043e-09	0.29963310052880415
8	1.1532108028302135	5.682174095568799	2.2970003682681908	0.2997331136354811	1.0000000099703734	-0.7500000074344918	-5.622237913751656e-09	0.33708723809490465
9	1.145756169735442	5.690567964065366	2.293265250229166	0.33718725157954366	1.0000000099696291	-0.7500000076450679	-4.198606379374187e-09	0.37454137566100515
10	1.1374053466306924	5.700041973356506	2.2890633982177024	0.37464138952306997	1.0000000099688466	-0.7500000078023231	-3.1261713214012322e-09	0.41199551322710565
11	1.1281712415036351	5.710607231620878	2.284394812233912	0.4120955274661498	1.000000009968023	-0.7500000079194111	-2.2805650861036013e-09	0.44944965079320615
12	1.1180683388439718	5.722276026936146	2.2792594922779186	0.44954966540885016	1.0000000099671544	-0.7500000080048278	-1.5666150256960214e-09	0.48690378835930664
13	1.1071127276374069	5.7350617932946975	2.273657438349865	0.4870038033512219	1.0000000099662376	-0.750000008063504	0.1872633989440635	0.5243579259254072
14	1.09532213186625	5.7489790727388055	2.26758865044992	0.5244579412933046	1.0000000099652686	-0.7429862189583575	0.49999995860553786	0.5618120634915077
15	1.082715943391489	5.764043473518028	2.261144441211686	0.5619120792351292	1.0000000099642432	-0.7242591517257003	0.4999999839870875	0.5992662010576082
16	1.0693137752983546	5.780270400444907	2.2544951916349842	0.5993662171767208	1.000000009963156	-0.7055320835423982	0.49999999239084003	0.6367203386237087
17	1.055133692258233	5.7976736008949805	2.247666046424229	0.6368203551180989	1.0000000099620017	-0.6868050150443399	0.4999999965517122	0.6741744761898092
18	1.0401941280532319	5.816266777105426	2.24068112752887	0.6742744930592796	1.0000000099607735	-0.668077946390439	0.49999999901421993	0.7116286137559097
19	1.0245137988716018	5.836063505666885	2.233563630228956	0.7117286310002753	1.000000009959464	-0.6493508776443063	0.5000000006263405	0.7490827513220102
20	1.0081116174310907	5.857077163111026	2.2263359099713615	0.7491827689410961	1.0000000099580646	-0.6306238088377923	0.5000000017511022	0.7865368888881107
21	0.9910066076065656	5.879320857268055	2.219019561089025	0.7866369068817499	1.0000000099565658	-0.6118967399891507	0.5000000025696733	0.8239910264542112
22	0.973217819299515	5.9028073640864624	2.2116354883793345	0.8240910448222425	1.0000000099549564	-0.5931696711098496	0.500000003182378	0.8614451640203117
23	0.9547642433387279	5.927549069621727	2.2042039723880764	0.861545182762578	1.000000009953224	-0.5744426022075997	0.5000000036489881	0.8988993015864122
24	0.9356647262449522	5.953557916911509	2.1967447291355016	0.898999320702759	1.0000000099513533	-0.5557155332878728	0.5000000040075018	0.9363534391525127
25	0.9159378847288743	5.980845357462738	2.189276964927577	0.9364534586427867	1.0000000099493271	-0.5369884643547177	0.5000000042826649	0.9738075767186132
26	0.8956020198223273	6.009422307080794	2.1818194268156743	0.9739075965826609	1.0000000099471253	-0.5182613954112563	0.5000000044911939	1.0112617142847138
27	0.8746750305681038	6.039299105773274	2.1743904491996258	1.01136173452238	1.000000009944724	-0.4995343264599842	0.5000000046447316	1.0487158518508144
28	0.8531743272147982	6.070485481460611	2.167007997010433	1.0488158724619407	1.000000009942094	-0.4808072575029613	0.5000000047513192	1.086169989416915
29	0.8311167438803908	6.10299051722339	2.159689705858463	1.0862700104013383	1.0000000099392015	-0.4620801885419461	0.5000000048164683	1.1236241269830156
30	0.808518450662295	6.1368226218116675	2.1524529194895026	1.1237241483405664	1.000000009936005	-0.44335311957849066	0.5000000048438021	1.1610782645491162
31	0.7853948651828124	6.171989503135144	2.145314724853462	1.161178286279617	1.0000000099324535	-0.4246260506140114	0.500000004835456	1.1985324021152168
32	0.7617605635677589	6.208498144444732	2.1382919850580766	1.1986324242184794	1.0000000099284847	-0.4058989816498447	0.5000000047923199	1.2359865396813174
33	0.7376291908628019	6.246354782906024	2.1314013704517993	1.23608656215714	1.00000000992402	-0.3871719126872938	0.5000000047141674	1.273440677247418
34	0.7130133708971226	6.285564890253443	2.1246593880557283	1.273540700095583	1.0000000099189603	-0.3684448437276701	0.5000000045996777	1.3108948148135187
35	0.6879246156076606	6.326133155200598	2.1180824095432556	1.310994838033788	1.0000000099131778	-0.3497177747723347	0.5000000044464894	1.3483489523796193
36	0.6623732338397179	6.368063467267375	2.1116866979478144	1.348448975971729	1.000000009906506	-0.33099070582273704	0.5000000042509406	1.3858030899457199
37	0.6363682396413404	6.4113589016679615	2.1054884332632064	1.3859031139093754	1.0000000098987227	-0.3122636368804638	0.500000004007957	1.4232572275118205
38	0.6099172600699252	6.456021704885891	2.0995037370872622	1.4233572518466864	1.000000009889524	-0.2935365679472916	0.5000000037107799	1.460711365077921
39	0.5830264425301797	6.502053280542666	2.0937486964477126	1.4608113897836104	1.0000000098784856	-0.27480949902525026	0.5000000033504796	1.4981655026440217
40	0.5557003616631261	6.549454175145315	2.0882393869389553	1.4982655277200794	1.0000000098649944	-0.256082430116704	0.5000000029153473	1.5356196402101223
41	0.5279419258065894	6.5982240632753655	2.082991895289664	1.5357196656560026	1.00000000984813	-0.23735536122445572	0.5000000023900083	1.573073777776223
42	0.4997522830487666	6.648361731757175	2.0780223414737695	1.5731738035912544	1.0000000098264474	-0.21862829235188394	0.5000000017541468	1.6105279153423235
43	0.4711307268983775	6.699865062317177	2.0733469004711154	1.6106279415256555	1.000000009797537	-0.19990122350312828	0.5000000009806249	1.6479820529084241
44	0.4420746015978058	6.752731012217346	2.068981823778909	1.6480820794589355	1.0000000097570616	-0.18117415468334466	0.5000000000327495	1.6854361904745248
45	0.412579207109918	6.80695559231594	2.0649434607709227	1.6855362173906618	1.0000000096963482	-0.1624470858990634	0.49999999886047436	1.7228903280406254
46	0.3826377038152219	6.862533841976212	2.0612482799980896	1.722990355320077	1.0000000095951578	-0.14372001715868912	0.49999999739311707	1.760344465606726
47	0.35224101696410426	6.919459800209198	2.0579128905217074	1.760444493245665	1.000000009392776	-0.12499294847327393	0.49999999553012925	1.7977986031728266
48	0.32137774093948596	6.977726472399679	2.0549540633687937	1.797898631163637	1.0000000087856276	-0.10626587985763578	0.4999999931241673	1.8352527407389272
49	0.29003404339882305	7.037325791924935	2.052388753198223	1.8353527690588318	0.9997232536212978	-0.08753881133211129	0.4999999899531105	1.8727068783050278
50	0.25819356938158594	7.098248575933495	2.050234120266101	1.8727965413279934	-1.0000000087857097	-0.0688117429253564	0.499999985670982	1.9101610158711284
51	0.22583752457384382	7.160484130044585	2.0485075623354847	1.8353424034327954	-1.000000009392906	-0.05008467467898534	0.4999999799766004	1.947615153437229
52	0.19423392122252006	7.221529689068346	2.0472769335275665	1.7978882655148187	-1.0000000095952892	-0.03135760664589277	0.4999999722388652	1.9850692910033296
53	0.16334887263613543	7.281367534539707	2.04652255424031	1.7604341275892257	-1.0000000096964796	-0.012630538902610707	0.4999999614474068	2.0225234285694302
54	0.1331514391326058	7.339981617383138	2.0462251093414814	1.7229799896598055	-1.000000009757193	0.006096528436486331	0.49999994592379055	2.059977566135531
55	0.10361353633694274	7.397357444022783	2.0463656202326095	1.6855258517280742	-1.0000000097976678	0.02482359519415949	0.4999999226893101	2.0974317037016315
56	0.07470984206060863	7.453481974249256	2.046925417902982	1.6480717137947891	-1.000000009826578	0.04355066108160504	0.4999998860942417	2.134885841267732
57	0.046417702138186426	7.508343529748816	2.047886116858558	1.6106175758603831	-1.00000000984826	0.062277725598413713	0.49999982429146	2.1723399788338327
58	0.018717035534383992	7.56193171226729	2.0492295898154445	1.573163437925126	-1.0000000098651236	0.08100478780045238	0.49999970850114717	2.2097941163999333
59	-0.008409761019043203	7.614237330443869	2.050937943050399	1.5357092999891977	-1.000000009878614	0.09973184566566463	0.4999994494871141	2.247248253966034
60	-0.03497790864228754	7.665252334408999	2.0529934922991857	1.4982551620527236	-1.0000000098896513	0.11845889382972961	0.4999985859082808	2.2847023915321345
61	-0.061000342006505816	7.714969757296318	2.0553787390725815	1.4608010241157943	-1.0000000098988489	0.1371859096491941	0.07460955600044794	2.322156529098235
62	-0.08648780496814534	7.76338366287149	2.058076347066446	1.4233468861784782	-1.0000000099066313	0.1399803462233806	-0.49999759761096874	2.3596106666643357
63	-0.11144894601098201	7.810489098535176	2.0607590292428704	1.3858927482408263	-1.0000000099133015	0.12125336741973958	-0.4999984529940855	2.3970648042304363
64	-0.1358762123123722	7.856289629838678	2.0630179496042027	1.3484386103028794	-1.0000000099190824	0.10252635657846162	-0.4999986345872589	2.434518941796537
65	-0.15974392793112904	7.900798587348975	2.064873761416958	1.310984472364669	-1.0000000099241406	0.08379933893576796	-0.4999986153610297	2.4719730793626375
66	-0.18302896147041595	7.944028128948532	2.066346745879153	1.27353033442622	-1.0000000099286037	0.06507232201317614	-0.49999846416739624	2.509427216928738
67	-0.2057105865084504	7.985989261097739	2.067456842978038	1.2360761964875535	-1.0000000099325708	0.04634531075341148	-0.49999816126150054	2.5468813544948388
68	-0.22777034931212745	8.026691865779553	2.068223681473028	1.1986220585486853	-1.0000000099361201	0.027618310838725905	-0.49999759852224157	2.5843354920609394
69	-0.24919194320765253	8.066144732348363	2.0686666078980487	1.1611679206096286	-1.0000000099393145	0.008891332000953954	-0.4999963992161296	2.62178962962704
70	-0.2699610889968891	8.104355593590205	2.0688047147006743	1.1237137826703938	-1.0000000099422046	-0.009835601917841889	-0.4999923779449147	2.6592437671931406
71	-0.2900654208342522	8.141331165372414	2.068656867731754	1.0862596447309896	-1.000000009944832	-0.028562385223392453	0.21949305207128278	2.696697904759241
72	-0.30949437700902765	8.177077189322656	2.0682417340121804	1.048805506791422	-1.000000009947231	-0.020341462256311418	0.4999936829294175	2.734152042325342
73	-0.32823909513175786	8.211598478019491	2.0679563176910807	1.0113513688516957	-1.00000000994943	-0.0016146300736917681	0.49999705774120334	2.7716061798914424
74	-0.34630491444133904	8.244892126564173	2.0679344744413384	0.9738972309118139	-1.000000009951453	0.01711232850959278	0.4999981285135765	2.809060317457543
75	-0.36370098832720127	8.276953166308813	2.0681574238909133	0.9364430929717784	-1.0000000099533204	0.03583932719773311	0.49999864694089496	2.8465144550236436
76	-0.3804349167130858	8.307777472591136	2.068606550730277	0.8989889550315892	-1.0000000099550495	0.05456634530312155	0.49999894266905337	2.8839685925897443
77	-0.39651284073488524	8.337361706609858	2.0692633797432816	0.861534817091245	-1.0000000099566548	0.07329337448475311	0.499999129557781	2.921422730155845
78	-0.4119395369388315	8.365703260542656	2.070109550401554	0.8240806791507433	-1.0000000099581496	0.0920204106661408	0.4999992545139234	2.9588768677219455
79	-0.4267185109391181	8.39280020538551	2.071126791574882	0.7866265412100799	-1.0000000099595447	0.11074745152765304	0.4999993406222738	2.996331005288046
80	-0.44085209051590385	8.418651241019356	2.07229689633476	0.7491724032692489	-1.00000000996085	0.12947449561427932	0.4999994004674373	3.0337851428541467
81	-0.4543415181541606	8.44325564804574	2.0736016967689466	0.7117182653282423	-1.0000000099620734	0.14820154194235458	0.4999994413377335	3.0712392804202473
82	-0.4671870430399214	8.466613240968037	2.0750230387077515	0.6742641273870502	-1.0000000099632227	0.16692858980119155	0.49999946756973784	3.108693417986348
83	-0.4793880125451662	8.488724322327563	2.0765427562566163	0.6368099894456598	-1.0000000099643045	0.1856556386425256	0.4999994816934209	3.1461475555524485
84	-0.49094296324664677	8.509589637435113	2.0781426460253933	0.5993558515040552	-1.0000000099653243	0.20438268801285	0.4999994850094204	3.183601693118549
85	-0.5018497115378456	8.5292103293677	2.079804440940558	0.5619017135622167	-1.0000000099662876	0.22310973750737234	0.4999994778605778	3.2210558306846497
86	-0.5121054439073347	8.547587893928085	2.081509783521802	0.5244475756201196	-1.0000000099671988	0.24183678673414097	0.499999459706101	3.2585099682507503
87	-0.5217068069713755	8.564724134291053	2.083240198498753	0.48699343767773257	-1.000000009968062	0.2605638352809493	0.49999942902811984	3.295964105816851
88	-0.5306499973639733	8.580621115085547	2.08497706463677	0.4495392997350159	-1.000000009968881	0.2792908826787403	0.4999993830418543	3.3334182433829516
89	-0.5389308516040613	8.59528111568588	2.0867015856328064	0.41208516179191845	-1.000000009969659	0.29801792835415536	0.4999993171079989	3.370872380949052
90	-0.5465449360773301	8.608706582508475	2.0883947599329664	0.37463102384837305	-1.0000000099703992	0.31674497156007475	0.4999992236148926	3.408326518515153
91	-0.5534876372897236	8.620900080133197	2.0900373493125497	0.3371768859042894	-1.000000009971104	0.33547201126429044	0.49999908981196683	3.4457806560812534
92	-0.5597542525710975	8.631864241090465	2.0916098460468473	0.29972274795954273	-1.000000009971776	0.35419904595703294	0.4999988933736192	3.483234793647354
93	-0.5653400814312818	8.641601714177161	2.0930924384865524	0.2622686100139541	-1.0000000099724176	0.3729260732923465	0.4999985925456552	3.5206889312134546
94	-0.5702405177971324	8.650115111186372	2.0944649748350987	0.22481447206725405	-1.0000000099730304	0.39165308936040816	0.4999981016831072	3.558143068779555
95	-0.5744511433884566	8.657406951958063	2.0957069249063047	0.18736033411901115	-1.0000000099736168	0.4103800870436364	0.49999722033039184	3.595597206345656
96	-0.5779678225233086	8.663479607680689	2.096797339618963	0.14990619616846898	-1.0000000099741784	0.4291070517165588	0.49999537367864094	3.6330513439117564
97	-0.5807867986794983	8.668335242397417	2.0977148079599357	0.11245205821411375	-1.0000000099747164	0.44783394722473246	0.49999019057321503	3.670505481477857
98	-0.5829047931796789	8.671975752695804	2.0984374111173576	0.07499792025215922	-1.0000000099752324	0.46656064860416246	0.49995571821238755	3.7079596190439577
99	-0.5843191064125529	8.674402705586735	2.0989426734409267	0.03754378226745766	-1.0000000099757278	0.48528605885105147	-0.01956838281315396	3.7454137566100583
100	-0.5850277220530364	8.675617274607571	2.0992075095963734	0.0	0.0	0.4845531419492215	0.0	3.782867894176159
101	-0.5850277220530364	8.675617274607571	2.099207509596376	-9.961425025198218e-09	-1.0000000097219839	-0.6614606367949882	-0.18720117084737328	3.9303132492615185
102	-0.5850277212905445	8.675617273307449	2.0992075100057286	-0.17432700103193177	-1.0000000097034047	-0.6890625799029743	0.4999983875238984	4.0777586043468785
103	-0.5720688927214795	8.653419316297079	2.1067695528860235	-0.32177235818124844	-1.0000000096821986	-0.6153401401123916	0.4999993236902186	4.225203959432238
104	-0.5478403659760335	8.612628429910401	2.1187473847404683	-0.46921771499978165	-1.000000009657753	-0.5416175622884144	0.4999995677865738	4.372649314517598
105	-0.5117997115698897	8.553573427581311	2.1336128099560643	-0.616663071704936	-1.0000000096292496	-0.46789494847354507	0.4999996566977635	4.520094669602957
106	-0.4632853031046959	8.476673849214484	2.1500220295906796	-0.7641084283505445	-1.000000009595574	-0.3941723215491208	0.49999968110907583	4.667540024688317
107	-0.4016155913677832	8.382386642716508	2.1667583273899136	-0.9115537849575818	-1.0000000095551658	-0.3204496910253571	0.4999996597904604	4.814985379773677
108	-0.3261737221642391	8.271152387828819	2.1826894962035035	-1.0589991415358893	-1.0000000095057735	-0.24672706364492847	0.4999995805544007	4.962430734859036
109	-0.23648148239699174	8.143338427674685	2.196734610161136	-1.2064444980902989	-1.000000009444023	-0.1730044479475008	0.4999993821668111	5.109876089944396
110	-0.13226635719222743	7.999178267022114	2.2078366066810196	-1.3538898546228013	-1.0000000093646155	-0.09928186150141853	0.49999881465293416	5.257321445029755
111	-0.013525780795768256	7.8387079443008885	2.214938211986257	-1.5013352111332972	-1.0000000092587265	-0.02555935873263858	0.49999616660098933	5.404766800115115
112	0.1194066102600857	7.661701165216891	2.216959346761851	-1.6487805676195948	-1.0000000091104755	0.048162753593168954	0.18733207319608405	5.552212155200475
113	0.2657868138552714	7.467606099167862	2.212774464740243	-1.7962259240766496	-1.0000000088881	0.07578399764443816	-0.4989680245491682	5.699657510285834
114	0.4243710500502577	7.255488198712251	2.2055924868340773	-1.9436712804943848	-1.000000008517466	0.002213480088553561	-0.01779321451090743	5.847102865371194
115	0.5943199734009836	7.024731836138551	2.205365932586717	-2.09111663685154	-1.0000000077761975	-0.00041004674312281075	0.003544587632691793	5.9945482204565534
116	0.7771048374535585	6.776429062506122	2.205411085389373	-2.2385619930938767	-1.0000000055523837	0.00011258623901188625	-0.0016927889253659859	6.141993575541913
117	0.9727899272921559	6.51062721001446	2.2053978136604155	-2.3860073490030547	-0.7731181173877925	-0.00013700762517308832	0.001100341647307393	6.289438930627273
118	1.181360271487275	6.227315257086411	2.2054150279689493	-2.5000000243442226	-2.4623461481112687e-14	2.5232639729317526e-05	8.847920984564685e-05	6.436884285712632
119	1.399900276509436	5.930471698151537	2.2054117061514833	-2.5000000243442257	2.0601666742675458e-14	3.827848824270137e-05	-0.0005184587296840781	6.584329640797992
120	1.618439295470273	5.633627413268295	2.2054066668788503	-2.5000000243442226	-3.863405715942347e-16	-3.81658432525939e-05	-0.12320337109528895	6.7317749958833515
121	1.8369768185490563	5.336782027111123	2.2054116913220363	-2.5000000243442226	-7.558780833083115e-15	-0.018203930642110767	0.030283440079397796	6.879220350968711
122	2.055515833107856	5.039937738987068	2.2078084605807065	-2.5000000243442235	2.7785855616982973e-13	-0.01373877806639787	0.49999426018490817	7.026665706054071
123	2.2747656865510972	4.74361809056442	2.2096172520932313	-2.500000024344183	-9.642316040734357e-15	0.059983053167211656	0.4999984990559098	7.17411106113943
124	2.4945511615043694	4.447695503937844	2.2017111404682597	-2.5000000243441844	-4.575058324023742e-11	0.1337055094026723	0.49999886499103013	7.32155641622479
125	2.711990194843255	4.150044535424628	2.184003478839037	-2.50000002435093	7.496233595550492e-11	0.20742801959357163	0.3114962839728661	7.4690017713101495
126	2.924124711652884	3.848590095989299	2.156297563367911	-2.500000024339877	2.5288587193546573e-10	0.253356699791721	-0.4999995604141828	7.616447126395509
